"Freq [GHz]","dB(St(1,1)) []"
1,-13.0314410235087
1.006,-12.4023620466972
1.012,-11.5611353521411
1.018,-10.6308435947229
1.024,-9.69650208052921
1.03,-8.8084915552804
1.036,-7.95872675959827
1.042,-7.24263661612398
1.048,-6.59147381807897
1.054,-6.02527967566909
1.06,-5.54245926187571
1.066,-5.13883487091889
1.072,-4.81439569073122
1.078,-4.55253017280689
1.084,-4.3558649912168
1.09,-4.21730973936563
1.096,-4.13173537203676
1.102,-4.09433465207726
1.108,-4.10054421134713
1.114,-4.14604558764442
1.12,-4.22677578681215
1.126,-4.33893026622082
1.132,-4.47893950918235
1.138,-4.64310502703626
1.144,-4.83106149711868
1.15,-5.03591118013826
1.156,-5.25742794271578
1.162,-5.49300333031958
1.168,-5.74048106184154
1.174,-5.99792023372885
1.18,-6.2635634592894
1.186,-6.53582065774154
1.192,-6.8132561011024
1.198,-7.09457672756041
1.204,-7.37862132713083
1.21,-7.6643544923543
1.216,-7.95083112256489
1.222,-8.23724553154174
1.228,-8.5228583425839
1.234,-8.80702476118659
1.24,-9.08917852762367
1.246,-9.36882529126233
1.252,-9.64553633116405
1.258,-9.91894285829384
1.264,-10.1887311900625
1.27,-10.4546403538903
1.276,-10.7164781344185
1.282,-17.1518456666743
1.288,-17.2799838983796
1.294,-17.394391614401
1.3,-17.4971410814921
1.306,-17.5884295331613
1.312,-17.6690270102928
1.318,-17.7395715058763
1.324,-17.8006569072314
1.33,-17.8531227615779
1.336,-17.8977862339695
1.342,-17.9353207227287
1.348,-17.9665576746317
1.354,-17.992175822084
1.36,-18.0131137105528
1.366,-18.0298509319867
1.372,-18.0430709166137
1.378,-18.0534914476356
1.384,-18.0615791975235
1.39,-18.0679519609094
1.396,-18.0729606554848
1.402,-18.0771229826946
1.408,-18.0808268126279
1.414,-18.0844235030324
1.42,-18.0882038541057
1.426,-18.092429711743
1.432,-18.0974991587211
1.438,-18.1034430105085
1.444,-18.1105180418573
1.45,-18.1188942746725
1.456,-18.1287392210715
1.462,-18.1400645461083
1.468,-18.1530968379234
1.474,-18.1678670301362
1.48,-18.1844447250712
1.486,-18.202873139322
1.492,-18.2212759129491
1.498,-18.2457077935889
1.504,-18.2699874247351
1.51,-18.2962922902889
1.516,-18.3246189621349
1.522,-18.3549717939932
1.528,-18.3873521923988
1.534,-18.4217576907085
1.54,-18.4581821521579
1.546,-18.4966161712331
1.552,-18.5370474945478
1.558,-18.579461416942
1.564,-18.6238109473052
1.57,-18.6700686192866
1.576,-18.718322754694
1.582,-18.7685380728002
1.588,-18.820682280572
1.594,-18.8747259625639
1.6,-18.9306424681799
1.606,-18.9884077961144
1.612,-19.0480004746572
1.618,-19.1094014350048
1.624,-19.1725938723671
1.63,-19.2375630857877
1.636,-19.3042962807727
1.642,-19.372782306142
1.648,-19.4430112715475
1.654,-19.5149739398485
1.66,-19.5886606710785
1.666,-19.6640594069426
1.672,-19.7411513991911
1.678,-19.8199009173434
1.684,-19.9002257681281
1.69,-19.9818876338833
1.696,-20.0638354944434
1.702,-20.1241041466547
1.708,-20.2509621190554
1.714,-20.3362712536634
1.72,-20.4265398090169
1.726,-20.5193039537347
1.732,-20.614169449649
1.738,-20.7110280297301
1.744,-20.8098481345968
1.75,-20.9106266557053
1.756,-21.0133735777249
1.762,-21.1181060207743
1.768,-21.2248455995957
1.774,-21.3336171510675
1.78,-21.4444481165277
1.786,-21.5573683107651
1.792,-21.6724100165423
1.798,-21.7896085036441
1.804,-21.9090033146554
1.81,-22.0306412250789
1.816,-22.1545834192807
1.822,-22.2809251169829
1.828,-22.4098612314062
1.834,-22.5419989561816
1.84,-22.6817656090073
1.846,-22.7887503245728
1.852,-22.9386480845269
1.858,-23.080634456686
1.864,-23.223797870374
1.87,-23.3689228413527
1.876,-23.5161533191155
1.882,-23.6654319461448
1.888,-23.8165112303078
1.894,-23.9687593333639
1.9,-24.1203689142361
1.906,-24.2637947218422
1.912,-24.3698318625907
1.918,-24.6948604319994
1.924,-24.828150119612
1.93,-24.988875713336
1.936,-25.1571400645341
1.942,-25.3295804475729
1.948,-25.505121880825
1.954,-25.6833493122485
1.96,-25.8642515198406
1.966,-26.0484951076961
1.972,-26.2388445714294
1.978,-26.4472337227757
1.984,-26.7366707649582
1.99,-27.0381481854338
1.996,-27.0450080751736
2.002,-27.1697664204306
2.008,-27.3283782755723
2.014,-27.4937650268528
2.02,-27.658585900986
2.026,-27.8197080744677
2.032,-27.9751350890665
2.038,-28.1232171472755
2.044,-28.2624052300631
2.05,-28.3911704041975
2.056,-28.5079852984003
2.062,-28.6113343875348
2.068,-28.699740340524
2.074,-28.7718003208808
2.08,-28.8262281828982
2.086,-28.8618989497611
2.092,-28.8778919085652
2.098,-28.8735286211937
2.104,-28.8484023916119
2.11,-28.8023963630037
2.116,-28.7356884318843
2.122,-28.6487424437146
2.128,-28.5407400330893
2.134,-28.4122739717005
2.14,-28.26594426457
2.146,-28.1030821353309
2.152,-27.9251210323655
2.158,-27.7335495238192
2.164,-27.5298686048728
2.17,-27.3155551018542
2.176,-27.0920320391372
2.182,-26.8606461279831
2.188,-26.6226519961596
2.194,-26.3792024169928
2.2,-26.1313436004961
2.206,-25.8800145444155
2.212,-25.6260494696348
2.218,-25.3701824413986
2.224,-25.1130533614958
2.23,-24.8552145439571
2.236,-24.5971369103883
2.242,-24.339213947725
2.248,-24.0817575649537
2.254,-23.8249569168268
2.26,-23.5685267477547
2.266,-23.3476650368527
2.272,-23.0653782337189
2.278,-22.8133622890208
2.284,-22.5635746535496
2.29,-22.3156950337647
2.296,-22.0697140173741
2.302,-21.8256689997946
2.308,-21.5836081528412
2.314,-21.3435842331362
2.32,-21.1056550859704
2.326,-20.8698861176976
2.332,-20.6363534205322
2.338,-20.4051470761527
2.344,-20.1763743990212
2.35,-19.9501629327005
2.356,-19.7266629974831
2.362,-19.5060495426783
2.368,-19.2885229980999
2.374,-19.074308758388
2.38,-18.8636548847778
2.386,-18.656827594081
2.392,-18.4541041779204
2.398,-18.2557634786857
2.404,-18.062084010739
2.41,-17.8732292059178
2.416,-17.6894936570914
2.422,-17.5109424336533
2.428,-17.3376143278412
2.434,-17.1694379227804
2.44,-17.0062228833434
2.446,-16.8476539304179
2.452,-16.6932928927803
2.458,-16.542589973068
2.464,-16.394904009848
2.47,-16.2495302685163
2.476,-16.1057332349823
2.482,-15.9627812218372
2.488,-15.8199794584577
2.494,-15.6766987296834
2.5,-15.5323974330885
2.506,-15.3866359403525
2.512,-15.2390831482762
2.518,-15.0895158840986
2.524,-14.9378121737598
2.53,-14.783938718226
2.536,-14.6279274032434
2.542,-14.4697687944797
2.548,-14.3122757225628
2.554,-14.1494178787604
2.56,-13.9866124450361
2.566,-13.8228073941695
2.572,-13.6582212043409
2.578,-13.4931238572332
2.584,-13.3277949550906
2.59,-13.1625137651083
2.596,-12.9975546897818
2.602,-12.8331845659769
2.608,-12.6696608868919
2.614,-12.5072305899524
2.62,-12.3461292179968
2.626,-12.1865803307427
2.632,-12.0287950828239
2.638,-11.8729719111623
2.644,-11.7192962938043
2.65,-11.567940556866
2.656,-11.4190637170565
2.662,-11.2728113551249
2.668,-11.1293155210602
2.674,-10.9886946754164
2.68,-10.851053673126
2.686,-10.7164837969158
2.692,-10.5850628472454
2.698,-10.4568552947708
2.704,-10.3319124999233
2.71,-10.2102730024409
2.716,-10.0919628817753
2.722,-9.97699618732761
2.728,-9.86537543557205
2.734,-9.75709216937464
2.74,-9.65212757329032
2.746,-9.5504531373603
2.752,-9.45203136096986
2.758,-9.35681648767469
2.764,-9.26475526155967
2.77,-9.17578769564295
2.776,-9.08984784305366
2.782,-9.00686456216104
2.788,-8.92676226747648
2.794,-8.8494616589468
2.8,-8.77488042316401
2.806,-8.70293390099365
2.812,-8.63353571713197
2.818,-8.56659836810801
2.824,-8.5020337662211
2.83,-8.4397537378239
2.836,-8.37967047520763
2.842,-8.32169694210644
2.848,-8.26574723350414
2.854,-8.2117368909953
2.86,-8.15958317542311
2.866,-8.10920529889249
2.872,-8.06052461854314
2.878,-8.01346479467143
2.884,-7.96795191591996
2.89,-7.9239145943181
2.896,-7.88128403296556
2.902,-7.83999406911252
2.908,-7.79998119531243
2.914,-7.76118456121617
2.92,-7.72354595844521
2.926,-7.68700979083386
2.932,-7.65152303217166
2.938,-7.61703517341258
2.944,-7.58349816115039
2.95,-7.55086632899387
2.956,-7.51909632331418
2.962,-7.4881470246805
2.968,-7.45797946615269
2.974,-7.42855674945973
2.98,-7.39984395996321
2.986,-7.37180808118488
2.992,-7.3444179095671
2.998,-7.3176439700346
3.004,-7.2914584328353
3.01,-7.26583503205624
3.016,-7.24074898613794
3.022,-7.21617692064574
3.028,-7.19209679349967
3.034,-7.16848782281458
3.04,-7.14533041745853
3.046,-7.12260611039994
3.052,-7.10029749488179
3.058,-7.07838816343346
3.064,-7.05686264970765
3.07,-7.03570637311058
3.076,-7.01490558617745
3.082,-6.9944473246321
3.088,-6.97431936005966
3.094,-6.95451015511237
3.1,-6.93500882116297
3.106,-6.91580507831538
3.112,-6.89688921767946
3.118,-6.87825206581469
3.124,-6.85988495124716
3.13,-6.84177967296413
3.136,-6.82392847079151
3.142,-6.806323997561
3.148,-6.78895929297556
3.154,-6.77182775908433
3.16,-6.75492313728079
3.166,-6.73823948674066
3.172,-6.72177116421937
3.178,-6.70551280513185
3.184,-6.68945930584078
3.19,-6.67360580708257
3.196,-6.65794767846389
3.202,-6.64248050396429
3.208,-6.62720006838417
3.214,-6.61210234468024
3.22,-6.5971834821335
3.226,-6.58243979529792
3.232,-6.56786775368098
3.238,-6.55346397210942
3.244,-6.53922520173688
3.25,-6.52514832165206
3.256,-6.51102781122619
3.262,-6.49704062068932
3.268,-6.48318338612338
3.274,-6.46945280601917
3.28,-6.45584563980291
3.286,-6.44235870639674
3.292,-6.42898888281344
3.298,-6.41573310278585
3.304,-6.40258835543122
3.31,-6.38955168395049
3.316,-6.376620184363
3.322,-6.36379100427624
3.328,-6.35106134169112
3.334,-6.33842844384232
3.34,-6.32588960607402
3.346,-6.31344217075072
3.352,-6.30108352620311
3.358,-6.28881110570889
3.364,-6.27662238650836
3.37,-6.2645148888547
3.376,-6.25248617509869
3.382,-6.24053384880784
3.388,-6.22865555391963
3.394,-6.21684897392881
3.4,-6.20511183110853
3.406,-6.19344188576522
3.412,-6.18183693552701
3.418,-6.17029481466551
3.424,-6.15881339345102
3.43,-6.14739057754076
3.436,-6.13602430740027
3.442,-6.12471255775771
3.448,-6.11345333709101
3.454,-6.10224468714797
3.46,-6.09108468249888
3.466,-6.07997143012201
3.472,-6.06890306902171
3.478,-6.05787776987911
3.484,-6.04689373473554
3.49,-6.0359491967085
3.496,-6.02504241974041
3.502,-6.01417169837998
3.508,-6.00333535759636
3.514,-5.99253175262616
3.52,-5.98175926885326
3.526,-5.97101632172168
3.532,-5.9603013566815
3.538,-5.94961284916792
3.544,-5.93894930461366
3.55,-5.92830925849475
3.556,-5.91769127640986
3.562,-5.90709395419328
3.568,-5.89651591806181
3.574,-5.88595582479547
3.58,-5.87541236195241
3.586,-5.86488424811806
3.592,-5.85437023318855
3.598,-5.84386909868878
3.604,-5.83337965812506
3.61,-5.82290075737254
3.616,-5.81243127509745
3.622,-5.80197012321436
3.628,-5.79151624737847
3.634,-5.78106862751287
3.64,-5.7706262783711
3.646,-5.7601882501346
3.652,-5.74975362904534
3.658,-5.73932153807344
3.664,-5.72889113761952
3.67,-5.71846162625188
3.676,-5.70803224147801
3.682,-5.69760226055027
3.688,-5.68717100130536
3.694,-5.67673782303707
3.7,-5.66630212740178
3.706,-5.65586335935615
3.712,-5.64542100812606
3.718,-5.63497460820606
3.724,-5.62452374038823
3.73,-5.61406803281926
3.736,-5.60360716208448
3.742,-5.59314085431707
3.748,-5.58266888633097
3.754,-5.57219108677526
3.76,-5.56170733730783
3.766,-5.55121757378588
3.772,-5.54072178747022
3.778,-5.53022002624033
3.784,-5.51971239581644
3.79,-5.50919906098484
3.796,-5.49868024682162
3.802,-5.48815623991023
3.808,-5.47762738954706
3.814,-5.46709410892899
3.82,-5.4565568763161
3.826,-5.44601623616201
3.832,-5.43547280020339
3.838,-5.42492724849959
3.844,-5.41438033041198
3.85,-5.40383286551198
3.856,-5.39328574440526
3.862,-5.38273992945857
3.868,-5.37219645541421
3.874,-5.36165642987571
3.88,-5.35112103364682
3.886,-5.34059152090392
3.892,-5.33006921918051
3.898,-5.31955552914005
3.904,-5.30905192411175
3.91,-5.29855994936107
3.916,-5.28808122106497
3.922,-5.27761742495873
3.928,-5.267170314619
3.934,-5.25674170934458
3.94,-5.24633349159375
3.946,-5.23594760393388
3.952,-5.2255860454561
3.958,-5.21525086760466
3.964,-5.20494416936817
3.97,-5.19466809177649
3.976,-5.18442481164549
3.982,-5.17421653450933
3.988,-5.16404548667907
3.994,-5.1539139063662
4,-5.14382403381047
4.006,-5.13377810035447
4.012,-5.12377831641229
4.018,-5.11382685828747
4.024,-5.10392585380754
4.03,-5.09407736675832
4.036,-5.08428338012451
4.042,-5.07454577817279
4.048,-5.06486632745381
4.054,-5.05524665685151
4.06,-5.04568823687482
4.066,-5.03619235847266
4.072,-5.02676011176094
4.078,-5.01739236518687
4.084,-5.008089745826
4.09,-4.99885262171908
4.096,-4.98968108741685
4.102,-4.98057495422151
4.108,-4.97153374700363
4.114,-4.96255670994486
4.12,-4.95364282412187
4.126,-4.94479084051647
4.132,-4.9359993328216
4.138,-4.92726677531753
4.144,-4.91859165211677
4.15,-4.90997260520648
4.156,-4.90140862992262
4.162,-4.89289932771369
4.168,-4.88444522719723
4.174,-4.8760481854344
4.18,-4.86771188182972
4.186,-4.85944241680726
4.192,-4.85124902601744
4.198,-4.84314491777885
4.204,-4.83514823613573
4.21,-4.82728314361484
4.216,-4.81958100578638
4.222,-4.8120816434825
4.228,-4.80483459773701
4.234,-4.79790032752618
4.24,-4.79135123253445
4.246,-4.78527236512578
4.252,-4.77976167183249
4.258,-4.77492959107949
4.264,-4.77089783798346
4.27,-4.76779723659534
4.276,-4.76576452095216
4.282,-4.76493812066874
4.288,-4.76545306961393
4.294,-4.76743531394161
4.3,-4.77099582641264
4.306,-4.77622503027264
4.312,-4.78318807144465
4.318,-4.7919214345168
4.324,-4.8024312735221
4.33,-4.81469363910859
4.336,-4.82865656194152
4.342,-4.84424373898488
4.348,-4.86135940312735
4.354,-4.87989386353031
4.36,-4.89972919224019
4.366,-4.92074459250277
4.372,-4.94282109380084
4.378,-4.96584535087318
4.384,-4.98971245393395
4.39,-5.0143277668777
4.396,-5.03960788982873
4.402,-5.06548089010496
4.408,-5.09188596516743
4.414,-5.11877269901342
4.42,-5.14610005709663
4.426,-5.17383524085714
4.432,-5.20195249648593
4.438,-5.23043194716062
4.444,-5.2592584957193
4.45,-5.28842082649574
4.456,-5.31791052094197
4.462,-5.34772129136404
4.468,-5.37784833001263
4.474,-5.40828776625194
4.48,-5.43903622195911
4.486,-5.47009045414175
4.492,-5.5014470735644
4.498,-5.53310232860237
4.504,-5.56505194434173
4.51,-5.59729100793346
4.516,-5.62981389226669
4.522,-5.662614211068
4.528,-5.69568479951406
4.534,-5.72901771533615
4.54,-5.7626042561862
4.546,-5.79643498972454
4.552,-5.83049979348268
4.558,-5.86478790205994
4.564,-5.89928795963859
4.57,-5.9339880761596
4.576,-5.96887588579872
4.582,-6.00393860663053
4.588,-6.03916310057292
4.594,-6.07453593287445
4.6,-6.11004343054773
4.606,-6.14567173926791
4.612,-6.18140687835244
4.618,-6.21723479351783
4.624,-6.25314140717649
4.63,-6.28911266609265
4.636,-6.32513458626303
4.642,-6.36119329492837
4.648,-6.39727506965482
4.654,-6.43336637445373
4.66,-6.46945389293215
4.666,-6.50552455848826
4.672,-6.54156558158327
4.678,-6.57756447413766
4.684,-6.6135090711124
4.69,-6.64938754934786
4.696,-6.68518844374254
4.702,-6.72090066086216
4.708,-6.75651349007675
4.714,-6.79201661232891
4.72,-6.82740010664101
4.726,-6.86265445447284
4.732,-6.89777054204377
4.738,-6.93273966073518
4.744,-6.96755350568992
4.75,-7.00220417272613
4.756,-7.03668415368193
4.762,-7.07098633030678
4.768,-7.10510396681386
4.774,-7.13903070120569
4.78,-7.17276053548293
4.786,-7.20628782484359
4.792,-7.23960726597667
4.798,-7.27271388455118
4.804,-7.30560302199778
4.81,-7.33827032167662
4.816,-7.37071171452123
4.822,-7.4029234042443
4.828,-7.4349018521873
4.834,-7.46664376189179
4.84,-7.4981460634666
4.846,-7.5294058978206
4.852,-7.56042060082755
4.858,-7.59118768748514
4.864,-7.62170483612706
4.87,-7.65196987274313
4.876,-7.68198075545918
4.882,-7.71173555922503
4.888,-7.74123246075573
4.894,-7.77046972376828
4.9,-7.79944568455318
4.906,-7.82815873791738
4.912,-7.85660732353281
4.918,-7.88478991272211
4.924,-7.91270499571115
4.93,-7.94035106937564
4.936,-7.96772662550731
4.942,-7.99483013962328
4.948,-8.02166006034056
4.954,-8.04821479933589
4.96,-8.07449272190994
4.966,-8.10049213817315
4.972,-8.12621129486946
4.978,-8.15164836785262
4.984,-8.17680145522892
4.99,-8.20166857117864
4.996,-8.2262476404677
5.002,-8.25053649365968
5.008,-8.27453286303715
5.014,-8.29823437924049
5.02,-8.32163856863078
5.026,-8.34474285138237
5.032,-8.3675445403095
5.038,-8.39004084042993
5.044,-8.41222884926716
5.05,-8.43410555789161
5.056,-8.45566785269915
5.062,-8.47691251792424
5.068,-8.49783623888289
5.074,-8.51843560593898
5.08,-8.5387071191855
5.086,-8.55864719383039
5.092,-8.57825216627438
5.098,-8.59751830086622
5.104,-8.61644179731823
5.11,-8.63501879876285
5.116,-8.6532454004284
5.122,-8.67111765890979
5.128,-8.68863160200721
5.134,-8.7057832391035
5.14,-8.72256857204813
5.146,-8.73898360651306
5.152,-8.75502436378335
5.158,-8.77068689294271
5.164,-8.7859672834117
5.17,-8.80086167779389
5.176,-8.81536628498308
5.182,-8.82947739348245
5.188,-8.84319138488435
5.194,-8.85650474745803
5.2,-8.86941408979055
5.206,-8.88191615442491
5.212,-8.8940078314385
5.218,-8.9056861719037
5.224,-8.91694840117222
5.23,-8.92779193192444
5.236,-8.93821437692511
5.242,-8.94821356142694
5.248,-8.95778753516488
5.254,-8.96693458388454
5.26,-8.97565324034986
5.266,-8.98394229477715
5.272,-8.99180080464458
5.278,-8.99922810382882
5.284,-9.00622381102363
5.29,-9.0127878373981
5.296,-9.01892039345599
5.302,-9.0246219950614
5.308,-9.02989346860001
5.314,-9.03473595524938
5.32,-9.03915091433646
5.326,-9.04314012576508
5.332,-9.04670569150062
5.338,-9.04985003610466
5.344,-9.05257590631656
5.35,-9.05488636968438
5.356,-9.05678481225227
5.362,-9.05827493531628
5.368,-9.05936075126538
5.374,-9.06004657852902
5.38,-9.06033703565694
5.386,-9.06023703456115
5.392,-9.05975177295416
5.398,-9.05888672602081
5.404,-9.05764763736489
5.41,-9.05604050927444
5.416,-9.05407159235265
5.422,-9.05174737456333
5.428,-9.04907456974228
5.434,-9.04606010562722
5.44,-9.04271111146037
5.446,-9.0390349052186
5.452,-9.03503898052664
5.458,-9.03073099330877
5.464,-9.02611874823469
5.47,-9.02121018501403
5.476,-9.01601336459375
5.482,-9.01053645531118
5.488,-9.00478771905388
5.494,-8.99877549747619
5.5,-8.99250819831998
5.506,-8.98549386497986
5.512,-8.97819782587167
5.518,-8.97062541671681
5.524,-8.96278205607301
5.53,-8.9546732388612
5.536,-8.94630452992668
5.542,-8.93768155764738
5.548,-8.928810007601
5.554,-8.91969561630259
5.56,-8.9103441650236
5.566,-8.90076147370255
5.572,-8.89095339495733
5.578,-8.88092580820823
5.584,-8.87068461392029
5.59,-8.86023572797306
5.596,-8.84958507616512
5.602,-8.8387385888602
5.608,-8.82770219578104
5.614,-8.8164818209568
5.62,-8.80508337782887
5.626,-8.7935127645197
5.632,-8.78177585926857
5.638,-8.76987851603768
5.644,-8.75782656029146
5.65,-8.74562578495157
5.656,-8.73328194652931
5.662,-8.72080076143721
5.668,-8.70818790248054
5.674,-8.69544899552956
5.68,-8.68258961637271
5.686,-8.66961528775058
5.692,-8.6565314765703
5.698,-8.64334359129959
5.704,-8.63005697953942
5.71,-8.61667692577407
5.716,-8.603208649297
5.722,-8.58965730231103
5.728,-8.57602796820074
5.734,-8.5623256599753
5.74,-8.54855531887948
5.746,-8.5347218131707
5.752,-8.52082993705976
5.758,-8.50688440981308
5.764,-8.49288987501398
5.77,-8.47885089998071
5.776,-8.46477197533896
5.782,-8.45065751474656
5.788,-8.4365118547682
5.794,-8.42233925489816
5.8,-8.40814389772893
5.806,-8.39392988926401
5.812,-8.37970125937321
5.818,-8.36546196238878
5.824,-8.35121587784129
5.83,-8.33696681133387
5.836,-8.32271849555404
5.842,-8.30847459142248
5.848,-8.29423868937814
5.854,-8.28001431079961
5.86,-8.26580490956278
5.866,-8.25161387373502
5.872,-8.23744452740661
5.878,-8.22330013266015
5.884,-8.20918389167902
5.89,-8.19509894899643
5.896,-8.18104839388644
5.902,-8.16703526289892
5.908,-8.15306254254053
5.914,-8.1391331721038
5.92,-8.12525004664684
5.926,-8.11141602012606
5.932,-8.09763390868458
5.938,-8.08390649409875
5.944,-8.07023652738542
5.95,-8.05662673257214
5.956,-8.04307981063262
5.962,-8.02959844358899
5.968,-8.01618529878226
5.974,-8.00284303331162
5.98,-7.98957429864236
5.986,-7.97638174538147
5.992,-7.96326802821835
5.998,-7.95023581102706
6.004,-7.93728777212467
6.01,-7.92442660967809
6.016,-7.91165504724975
6.022,-7.89897583946961
6.028,-7.8863917778179
6.034,-7.87390569649947
6.04,-7.86152047838683
6.046,-7.84923906100405
6.052,-7.83706444251933
6.058,-7.82499968770769
