"Freq [GHz]","dB(St(1,5)) []"
1,-18.7862662444717
1.006,-18.2764304036803
1.012,-17.9087818290729
1.018,-17.604393049912
1.024,-17.3268386780286
1.03,-17.060199797924
1.036,-16.8161331639932
1.042,-16.5538928909485
1.048,-16.312378725505
1.054,-16.0858798277075
1.06,-15.8782947619427
1.066,-15.6936418323857
1.072,-15.53000529641
1.078,-15.399716163516
1.084,-15.2961162693516
1.09,-15.2211099561311
1.096,-15.1742246715429
1.102,-15.1542465588628
1.108,-15.1594314735695
1.114,-15.1876551182488
1.12,-15.2365317598456
1.126,-15.3034687339554
1.132,-15.3854362326447
1.138,-15.4742282251096
1.144,-15.6030757887845
1.15,-15.7144551532665
1.156,-15.8375059001073
1.162,-15.9666608486259
1.168,-16.0998955205973
1.174,-16.2357147488771
1.18,-16.3728848862589
1.186,-16.5103661765921
1.192,-16.6472767022927
1.198,-16.7828489786805
1.204,-16.9162732623516
1.21,-17.0412023462129
1.216,-17.1792221420783
1.222,-17.3043561425833
1.228,-17.426831280539
1.234,-17.5460721282329
1.24,-17.661914325574
1.246,-17.7743102085197
1.252,-17.8833344272535
1.258,-17.9893303646601
1.264,-18.0927989927572
1.27,-18.1928823695203
1.276,-18.2919316693391
1.282,-21.1254346049567
1.288,-21.0819582512968
1.294,-21.0404159359191
1.3,-21.0012722488002
1.306,-20.9645268672918
1.312,-20.9302558858257
1.318,-20.8984665888459
1.324,-20.8691207433447
1.33,-20.842213284371
1.336,-20.8177190069981
1.342,-20.7955588853382
1.348,-20.7756927325286
1.354,-20.7580614753737
1.36,-20.7425833197672
1.366,-20.7291992570273
1.372,-20.7178371366666
1.378,-20.7084181905389
1.384,-20.7008760668795
1.39,-20.6951310616849
1.396,-20.6911234084358
1.402,-20.6887762212474
1.408,-20.6880213651819
1.414,-20.6887918982569
1.42,-20.6910301454852
1.426,-20.6945739250604
1.432,-20.6996316545857
1.438,-20.7058812360071
1.444,-20.7133541089603
1.45,-20.7220038161115
1.456,-20.7318103357261
1.462,-20.7425903661331
1.468,-20.7544476854923
1.474,-20.7672691568102
1.48,-20.7810087957215
1.486,-20.795606949921
1.492,-20.8088190525154
1.498,-20.8275017704297
1.504,-20.8445030756828
1.51,-20.862258495939
1.516,-20.8807139713448
1.522,-20.8998322601523
1.528,-20.9195796673828
1.534,-20.9399240887922
1.54,-20.9608344423133
1.546,-20.9822804143272
1.552,-21.0042323085447
1.558,-21.0266609396673
1.564,-21.0495286607251
1.57,-21.0728087918269
1.576,-21.0965098304788
1.582,-21.1206024936795
1.588,-21.1450588589595
1.594,-21.169852326542
1.6,-21.1949575848588
1.606,-21.2203505805808
1.612,-21.2460084947333
1.618,-21.2719097271141
1.624,-21.2980338922854
1.63,-21.3243618321647
1.636,-21.3508756532732
1.642,-21.377558802152
1.648,-21.4043962027166
1.654,-21.4313744996319
1.66,-21.4584824943455
1.666,-21.4857119551794
1.672,-21.5130592069305
1.678,-21.5405284518685
1.684,-21.5681388874166
1.69,-21.5959337589173
1.696,-21.6237081554833
1.702,-20.9242542678037
1.708,-21.6722111194406
1.714,-21.7028654297657
1.72,-21.7314251612812
1.726,-21.7595926809648
1.732,-21.7876540376093
1.738,-21.8156939406641
1.744,-21.8437330741612
1.75,-21.8717409087328
1.756,-21.8995999330644
1.762,-21.9270062311435
1.768,-21.9532475793102
1.774,-21.9767751892884
1.78,-21.9946785538115
1.786,-22.003287844173
1.792,-22.002643754585
1.798,-22.0010593647464
1.804,-22.0070341606953
1.81,-22.0198240580179
1.816,-22.0332419932287
1.822,-22.0391426078759
1.828,-22.0204890724643
1.834,-21.9036927480416
1.84,-21.8382068577136
1.846,-22.288656601854
1.852,-22.3107007973935
1.858,-22.3224745600918
1.864,-22.3377718008764
1.87,-22.3561476607118
1.876,-22.3779027707198
1.882,-22.4066959147173
1.888,-22.4622279583866
1.894,-22.6995383034722
1.9,-22.7311500736151
1.906,-22.5298771086189
1.912,-22.5040019753529
1.918,-22.5060316967023
1.924,-22.5149691602243
1.93,-22.5259674353433
1.936,-22.5374099349494
1.942,-22.5486023256675
1.948,-22.5591800442113
1.954,-22.5689153408072
1.96,-22.5776429985685
1.966,-22.5852279504761
1.972,-22.5915497448541
1.978,-22.596494528438
1.984,-22.5999506964043
1.99,-22.6018064890519
1.996,-22.601948720282
2.002,-22.6002622383523
2.008,-22.5966299233193
2.014,-22.5909331322818
2.02,-22.5830525628184
2.026,-22.5728695396705
2.032,-22.5602677505028
2.038,-22.5451354684691
2.044,-22.527368304385
2.05,-22.5068725299972
2.056,-22.4835690056436
2.062,-22.4573977294104
2.068,-22.42832299933
2.074,-22.3963391437748
2.08,-22.3614767268715
2.086,-22.3238090750567
2.092,-22.2834588986627
2.098,-22.2406047013121
2.104,-22.1954865850372
2.11,-22.1484109784508
2.116,-22.0997537501381
2.122,-22.0499611336248
2.128,-21.9943615857079
2.134,-21.9304531151872
2.14,-21.8623846956207
2.146,-21.7900226258052
2.152,-21.713232546301
2.158,-21.6318798119848
2.164,-21.5458299028396
2.17,-21.4549488759075
2.176,-21.3591038618326
2.182,-21.2581636100981
2.188,-21.1519990879968
2.194,-21.0404841397011
2.2,-20.923496213788
2.206,-20.800917170739
2.212,-20.6726341874349
2.218,-20.5385407861839
2.224,-20.3985380383082
2.23,-20.2525360464996
2.236,-20.1004559597053
2.242,-19.94223326071
2.248,-19.7778250356823
2.254,-19.6072350396679
2.26,-19.4306881047812
2.266,-19.2323807991462
2.272,-19.0559640319576
2.278,-18.8604994347904
2.284,-18.6585846907572
2.29,-18.4505080545394
2.296,-18.2364391952068
2.302,-18.016560402124
2.308,-17.7910907770118
2.314,-17.5602968193231
2.32,-17.3245003726993
2.326,-17.0840861701009
2.332,-16.839509557296
2.338,-16.5913045141528
2.344,-16.3400919003282
2.35,-16.0865877217246
2.356,-15.8316110900044
2.362,-15.5760914119492
2.368,-15.3210741948031
2.374,-15.067724691694
2.38,-14.8173284461322
2.386,-14.5712876282798
2.392,-14.3311118065813
2.398,-14.0984004889941
2.404,-13.8747815801221
2.41,-13.6622172325935
2.416,-13.4620604819446
2.422,-13.2761736257563
2.428,-13.1061148701337
2.434,-12.9533113083872
2.44,-12.8189907600423
2.446,-12.7041320378079
2.452,-12.6094252518129
2.458,-12.535244941654
2.464,-12.4816385366027
2.47,-12.4483312715343
2.476,-12.434747021387
2.482,-12.4400429216236
2.488,-12.4631543962759
2.494,-12.502846496534
2.5,-12.5577673060905
2.506,-12.6264995022328
2.512,-12.7076067509313
2.518,-12.7996720435388
2.524,-12.9013242868823
2.53,-13.0112429261655
2.536,-13.1280870509227
2.542,-13.2497646973863
2.548,-13.396362022491
2.554,-13.5172922236467
2.56,-13.6530527961479
2.566,-13.7925477818005
2.572,-13.9348027823733
2.578,-14.0792985939951
2.584,-14.2256684944877
2.59,-14.3736407008467
2.596,-14.5230166003886
2.602,-14.6736578368068
2.608,-14.8254765501102
2.614,-14.9784271795426
2.62,-15.1324992891357
2.626,-15.2877111947195
2.632,-15.4441042801118
2.638,-15.6017379309608
2.644,-15.7606850317282
2.65,-15.9210279797294
2.656,-16.0828551754138
2.662,-16.2462579521149
2.668,-16.41132791195
2.674,-16.5781546375893
2.68,-16.7468237522312
2.686,-16.9174153023124
2.692,-17.0900024392204
2.698,-17.2646503775956
2.704,-17.4414156087461
2.71,-17.6203453483115
2.716,-17.8014771976901
2.722,-17.9848389989561
2.728,-18.170448863131
2.734,-18.3583153518103
2.74,-18.5484377923413
2.746,-18.7408067070646
2.752,-18.9354043375966
2.758,-19.1322052457746
2.764,-19.3311769737116
2.77,-19.5322807464153
2.776,-19.7354722015912
2.782,-19.9407021325574
2.788,-20.1479172316069
2.794,-20.3570608226365
2.8,-20.5680735733755
2.806,-20.7808941790625
2.812,-20.9954600108961
2.818,-21.2117077240044
2.824,-21.4295738210028
2.83,-21.6489951684331
2.836,-21.869909464476
2.842,-22.0922556572991
2.848,-22.3159743142417
2.854,-22.5410079427398
2.86,-22.7673012644714
2.866,-22.9948014446532
2.872,-23.2234582787622
2.878,-23.453224339185
2.884,-23.6840550844481
2.89,-23.9159089337353
2.896,-24.1487473094003
2.902,-24.3825346501041
2.908,-24.6172383970996
2.914,-24.8528289560247
2.92,-25.0892796363771
2.926,-25.3265665706336
2.932,-25.5646686147436
2.938,-25.8035672314841
2.944,-26.0432463579054
2.95,-26.2836922578418
2.956,-26.5248933601928
2.962,-26.7668400834153
2.968,-27.0095246463981
2.974,-27.2529408656213
2.98,-27.4970839382295
2.986,-27.7419502103789
2.992,-27.9875369299367
2.998,-28.2338419823397
3.004,-28.4808636081282
3.01,-28.7286001003884
3.016,-28.9770494800388
3.022,-29.226209146596
3.028,-29.4760755017498
3.034,-29.726643542763
3.04,-29.9779064223973
3.046,-30.2298549717512
3.052,-30.4824771820823
3.058,-30.7357576413874
3.064,-30.9896769212345
3.07,-31.2442109090906
3.076,-31.4993300811951
3.082,-31.7549987109003
3.088,-32.0111740073704
3.094,-32.2678051796363
3.1,-32.524832421279
3.106,-32.7821858115166
3.112,-33.0397841292653
3.118,-33.2975335778928
3.124,-33.5553264199883
3.13,-33.8130395236223
3.136,-34.0705328243775
3.142,-34.3276477110246
3.148,-34.5842053472141
3.154,-34.8400049470916
3.16,-35.0948220294255
3.166,-35.3484066827666
3.172,-35.6004818833616
3.178,-35.850741918009
3.184,-36.0988509756199
3.19,-36.3444419836563
3.196,-36.587115778391
3.202,-36.8264407103556
3.208,-37.0619527974385
3.214,-37.2931565465873
3.22,-37.5195265693813
3.226,-37.740510115054
3.232,-37.9555306348861
3.238,-38.1639924723222
3.244,-38.3652867420285
3.25,-38.558798417358
3.256,-38.7587424031682
3.262,-38.9482814526183
3.268,-39.1267175593598
3.274,-39.2933991029945
3.28,-39.4477350218528
3.286,-39.5892086925488
3.292,-39.7173908573229
3.298,-39.8319509263448
3.304,-39.9326660226648
3.31,-40.0194272344871
3.316,-40.0922426877498
3.322,-40.1512372391671
3.328,-40.1966487976344
3.334,-40.2288214886948
3.34,-40.2481960612873
3.346,-40.255298080325
3.352,-40.2507245409469
3.358,-40.2351295760096
3.364,-40.2092099102721
3.37,-40.1736906514164
3.376,-40.129311911997
3.382,-40.0768166415445
3.388,-40.0169399276339
3.394,-39.9503999098617
3.4,-39.877890349394
3.406,-39.8000748138915
3.412,-39.7175823750527
3.418,-39.6310046733209
3.424,-39.540894179415
3.43,-39.4477634722985
3.436,-39.3520853546798
3.442,-39.254293636906
3.448,-39.1547844352814
3.454,-39.0539178490186
3.46,-38.9520198993488
3.466,-38.8493846334187
3.472,-38.7462763135661
3.478,-38.6429316288381
3.484,-38.539561879916
3.49,-38.4363551008581
3.496,-38.3334780913293
3.502,-38.2310783413994
3.508,-38.129285837755
3.514,-38.0282147454961
3.52,-37.9279649637914
3.526,-37.8286235567518
3.532,-37.7302660631282
3.538,-37.6329576900143
3.544,-37.536754396776
3.55,-37.44170387605
3.556,-37.3478464389592
3.562,-37.2552158117567
3.568,-37.163839850999
3.574,-37.0737411841116
3.58,-36.984937781893
3.586,-36.8974434691279
3.592,-36.8112683790771
3.598,-36.7264193571978
3.604,-36.6429003190322
3.61,-36.5607125667977
3.616,-36.4798550688262
3.622,-36.4003247056298
3.628,-36.3221164860277
3.634,-36.2452237364489
3.64,-36.1696382662286
3.646,-36.0953505114466
3.652,-36.0223496596057
3.658,-35.9506237572243
3.664,-35.8801598022098
3.67,-35.8109438226971
3.676,-35.7429609438638
3.682,-35.6761954440872
3.688,-35.6106308016675
3.694,-35.5462497332227
3.7,-35.4830342247457
3.706,-35.4209655562203
3.712,-35.3600243205988
3.718,-35.3001904378667
3.724,-35.2414431648476
3.73,-35.1837611013373
3.736,-35.1271221930961
3.742,-35.0715037321807
3.748,-35.0168823550458
3.754,-34.9632340388088
3.76,-34.9105340960284
3.766,-34.8587571683208
3.772,-34.8078772191021
3.778,-34.7578675257238
3.784,-34.708700671243
3.79,-34.6603485360491
3.796,-34.6127822895539
3.802,-34.5659723821348
3.808,-34.5198885375107
3.814,-34.4744997457223
3.82,-34.4297742568795
3.826,-34.3856795758365
3.832,-34.3421824579557
3.838,-34.2992489061206
3.844,-34.2568441691657
3.85,-34.2149327418978
3.856,-34.1734783668973
3.862,-34.1324440383019
3.868,-34.0917920077964
3.874,-34.0514837930565
3.88,-34.0114801889244
3.886,-33.9717412816302
3.892,-33.9322264664129
3.898,-33.8928944689467
3.904,-33.8537033710329
3.91,-33.8146106410835
3.916,-33.7755731700005
3.922,-33.7365473131392
3.928,-33.6974889391464
3.934,-33.6583534865757
3.94,-33.6190960293161
3.946,-33.5796713520163
3.952,-33.5400340368572
3.958,-33.5001385632203
3.964,-33.4599394220173
3.97,-33.419391246696
3.976,-33.3784489632228
3.982,-33.3370679616599
3.988,-33.2952042923217
3.994,-33.2528148899051
4,-33.2098578294484
4.006,-33.1662926185008
4.012,-33.122080530465
4.018,-33.0771849847333
4.024,-33.031571979968
4.03,-32.9852105876876
4.036,-32.9380735142161
4.042,-32.8901377400335
4.048,-32.8413852466305
4.054,-32.7918038421188
4.06,-32.7413880980584
4.066,-32.6901404112281
4.072,-32.6380722053434
4.078,-32.5852052889734
4.084,-32.5315733870621
4.09,-32.4772238644187
4.096,-32.4222196601832
4.102,-32.3666414524236
4.108,-32.3105900714577
4.114,-32.254189178921
4.12,-32.1975882266571
4.126,-32.1409657047328
4.132,-32.0845326807154
4.138,-32.028536622139
4.144,-31.9732654800764
4.15,-31.9190519930923
4.156,-31.8662781467349
4.162,-31.8153796933367
4.168,-31.7668505996517
4.174,-31.7212472455668
4.18,-31.6791921462645
4.186,-31.6413769142847
4.192,-31.6085641198562
4.198,-31.5815876524291
4.204,-31.561351140536
4.21,-31.5488239603209
4.216,-31.5450343668673
4.222,-31.5510593297375
4.228,-31.5680107575661
4.234,-31.597017966004
4.24,-31.6392064825511
4.246,-31.6956735848032
4.252,-31.7674613163537
4.258,-31.8555280835512
4.264,-31.9607202601189
4.27,-32.0837454613837
4.276,-32.2251492434646
4.282,-32.3852968966612
4.288,-32.5643617226604
4.294,-32.7623207303243
4.3,-32.9789581053554
4.306,-33.2138761801932
4.312,-33.4665130371467
4.318,-33.736165397713
4.324,-34.0220151392951
4.33,-34.3231576604027
4.336,-34.6386303775101
4.342,-34.9674398453168
4.348,-35.308586296011
4.354,-35.661084737463
4.36,-36.023982086378
4.366,-36.3963701038794
4.372,-36.7773941255637
4.378,-37.1662577267932
4.384,-37.5622235380566
4.39,-37.9646104324183
4.396,-38.3727872584374
4.402,-38.7861631994078
4.408,-39.204174714838
4.414,-39.6262688736925
4.42,-40.0518827324305
4.426,-40.4804182582923
4.432,-40.911212169684
4.438,-41.3434999920858
4.444,-41.7763736585949
4.45,-42.2087321938814
4.456,-42.6392255181775
4.462,-43.0661923427293
4.468,-43.4875946830281
4.474,-43.9009538791648
4.48,-44.3032963026859
4.486,-44.6911210527179
4.492,-45.0604063703773
4.498,-45.4066749928682
4.504,-45.7251391103107
4.51,-46.01094018982
4.516,-46.2594851854175
4.522,-46.4668581802817
4.528,-46.6302592009555
4.534,-46.7483987571108
4.54,-46.8217691116054
4.546,-46.8527294341279
4.552,-46.8453801534355
4.558,-46.8052492473032
4.564,-46.7388521491832
4.57,-46.6532043721222
4.576,-46.5553597672859
4.582,-46.4520252724868
4.588,-46.3492763948834
4.594,-46.2523753988083
4.6,-46.1656801192562
4.606,-46.0926251493533
4.612,-46.0357564375697
4.618,-45.9968024455687
4.624,-45.9767680560138
4.63,-45.9760403685297
4.636,-45.9944980306877
4.642,-46.03161781863
4.648,-46.0865739189139
4.654,-46.1583268628857
4.66,-46.2457003662252
4.666,-46.3474454249962
4.672,-46.4622918959413
4.678,-46.588988430868
4.684,-46.7263320497526
4.69,-46.8731888508659
4.696,-47.0285074080765
4.702,-47.1913263397574
4.708,-47.3607773925769
4.714,-47.5360852025712
4.72,-47.7165647024209
4.726,-47.9016169564839
4.732,-48.0907240351891
4.738,-48.2834433935264
4.744,-48.4794020961831
4.75,-48.6782911334305
4.756,-48.8798599947558
4.762,-49.0839116084249
4.768,-49.2902977114985
4.774,-49.4989146833336
4.78,-49.7096998536869
4.786,-49.9226282819808
4.792,-50.1377099953112
4.798,-50.3549876679477
4.804,-50.574534723303
4.81,-50.796453839812
4.816,-51.020875844258
4.822,-51.2479589793944
4.828,-51.477888536961
4.834,-51.7108768522318
4.84,-51.9471636619804
4.846,-52.1870168342561
4.852,-52.4307334857058
4.858,-52.6786415105504
4.864,-52.931101554973
4.87,-53.1885094819704
4.876,-53.4512993851166
4.882,-53.7199472258216
4.888,-53.9949751883454
4.894,-54.2769568711377
4.9,-54.5665234634393
4.906,-54.8643710944274
4.912,-55.1712695911137
4.918,-55.4880729442399
4.924,-55.8157318634654
4.93,-56.1553089109863
4.936,-56.5079968459884
4.942,-56.8751410046913
4.948,-57.2582668019759
4.954,-57.6591137997011
4.96,-58.0796782868816
4.966,-58.5222670229834
4.972,-58.9895658075665
4.978,-59.4847280134762
4.984,-60.0114904054243
4.99,-60.5743268654937
4.996,-61.1786557336621
5.002,-61.8311244866725
5.008,-62.5400084079174
5.014,-63.3157812737258
5.02,-64.1719522841874
5.026,-65.1263261299609
5.032,-66.2029528416894
5.038,-67.4352228139522
5.044,-68.8708481988397
5.05,-70.5796275242465
5.056,-72.6627518461585
5.062,-75.2411831395144
5.068,-78.2361085625459
5.074,-80.120441228722
5.08,-78.4312760131283
5.086,-75.3485891281599
5.092,-72.6329505798306
5.098,-70.4220373219736
5.104,-68.597455208894
5.11,-67.0549092803389
5.116,-65.7221059992171
5.122,-64.5497377127769
5.128,-63.5034313931125
5.134,-62.5585366936421
5.14,-61.6968873374588
5.146,-60.9047650619422
5.152,-60.1715872572454
5.158,-59.4890375502364
5.164,-58.8504743807313
5.17,-58.2505187230009
5.176,-57.6847602312553
5.182,-57.149543545031
5.188,-56.6418100437203
5.194,-56.1589787221878
5.2,-55.6988551676529
5.206,-55.2595610545539
5.212,-54.8394788451456
5.218,-54.4372079132484
5.224,-54.0515293571598
5.23,-53.6813774983632
5.236,-53.3258165794542
5.242,-52.9840215453984
5.248,-52.6552620615977
5.254,-52.3388891203607
5.26,-52.0343237347343
5.266,-51.7410473294101
5.272,-51.4585935224888
5.278,-51.1865410562416
5.284,-50.9245076847094
5.29,-50.6721448646154
5.296,-50.429133126308
5.302,-50.1951780252424
5.308,-49.970006593306
5.314,-49.7533642241904
5.32,-49.5450119388356
5.326,-49.3447239863636
5.332,-49.1522857433621
5.338,-48.9674918802707
5.344,-48.7901447682631
5.35,-48.6200531036536
5.356,-48.4570307296972
5.362,-48.3008956378458
5.368,-48.1514691322249
5.374,-48.0085751424037
5.38,-47.8720396705535
5.386,-47.7416903598923
5.392,-47.617356171977
5.398,-47.4988671609674
5.404,-47.3860543334992
5.41,-47.2787495833011
5.416,-47.1767856901844
5.422,-47.0799963735596
5.428,-46.98821639118
5.434,-46.9012816744017
5.44,-46.8190294918673
5.446,-46.7412986341711
5.452,-46.6679296127364
5.458,-46.5987648668241
5.464,-46.5336489732833
5.47,-46.4724288543442
5.476,-46.4149539794231
5.482,-46.3610765575631
5.488,-46.3106517177465
5.494,-46.2635376748974
5.5,-46.2195958799275
5.506,-46.1126318259892
5.512,-46.0072000192605
5.518,-45.9032812112764
5.524,-45.8008559509987
5.53,-45.6999045822656
5.536,-45.6004072424048
5.542,-45.5023438620488
5.548,-45.4056941661712
5.554,-45.31043767636
5.56,-45.2165537143261
5.566,-45.1240214066416
5.572,-45.0328196906894
5.578,-44.9429273217988
5.584,-44.8543228815355
5.59,-44.7669847871045
5.596,-44.6808913018219
5.602,-44.5960205466022
5.608,-44.512350512407
5.614,-44.4298590735925
5.62,-44.3485240020935
5.626,-44.2683229823763
5.632,-44.1892336270908
5.638,-44.1112334933521
5.644,-44.0343000995784
5.65,-43.9584109428126
5.656,-43.8835435164562
5.662,-43.8096753283411
5.668,-43.7367839190694
5.674,-43.6648468805503
5.68,-43.5938418746658
5.686,-43.5237466519988
5.692,-43.454539070559
5.698,-43.3861971144459
5.704,-43.3186989123892
5.71,-43.2520227561126
5.716,-43.1861471184671
5.722,-43.1210506712862
5.728,-43.0567123029169
5.734,-42.9931111353853
5.74,-42.930226541158
5.746,-42.868038159466
5.752,-42.8065259121586
5.758,-42.7456700190616
5.764,-42.6854510128151
5.77,-42.6258497531708
5.776,-42.5668474407325
5.782,-42.5084256301248
5.788,-42.4505662425807
5.794,-42.3932515779395
5.8,-42.3364643260507
5.806,-42.280187577581
5.812,-42.224404834225
5.818,-42.1691000183221
5.824,-42.1142574818838
5.83,-42.0598620150379
5.836,-42.0058988538975
5.842,-41.9523536878652
5.848,-41.8992126663828
5.854,-41.8464624051383
5.86,-41.7940899917446
5.866,-41.7420829909024
5.872,-41.690429449063
5.878,-41.6391178986056
5.884,-41.5881373615436
5.89,-41.5374773527774
5.896,-41.4871278829073
5.902,-41.4370794606229
5.908,-41.3873230946839
5.914,-41.3378502955069
5.92,-41.2886530763736
5.926,-41.2397239542715
5.932,-41.1910559503831
5.938,-41.1426425902337
5.944,-41.0944779035098
5.95,-41.0465564235581
5.956,-40.998873186574
5.962,-40.9514237304892
5.968,-40.9042040935626
5.974,-40.8572108126823
5.98,-40.8104409213825
5.986,-40.7638919475775
5.992,-40.7175619110152
5.998,-40.6714493204498
6.004,-40.6255531705327
6.01,-40.5798729384188
6.016,-40.5344085800836
6.022,-40.4891605263464
6.028,-40.4441296785917
6.034,-40.3993174041805
6.04,-40.3547255315414
6.046,-40.3103563449309
6.052,-40.2662125788496
6.058,-40.2222974120997
