"Freq [GHz]","dB(St(6,6)) []"
1,-13.2684349725573
1.006,-12.7015072836196
1.012,-12.0840027043549
1.018,-11.5219563921039
1.024,-11.0252464575743
1.03,-10.5819672999233
1.036,-10.1852182415852
1.042,-9.81674248598329
1.048,-9.48396489466674
1.054,-9.18426704939494
1.06,-8.91889804544842
1.066,-8.68944885247246
1.072,-8.49582594218056
1.078,-8.34094440390823
1.084,-8.22251352075796
1.09,-8.13983348959116
1.096,-8.09120749692002
1.102,-8.07445388124692
1.108,-8.08706684581685
1.114,-8.12635081697893
1.12,-8.18953246923058
1.126,-8.27384326060794
1.132,-8.37652833104921
1.138,-8.49392117979875
1.144,-8.6309840978216
1.15,-8.77435446138404
1.156,-8.92855236928852
1.162,-9.09121933367164
1.168,-9.26091645204623
1.174,-9.43649939500756
1.18,-9.61704979601273
1.186,-9.80184505166893
1.192,-9.99033339748926
1.198,-10.1821081478843
1.204,-10.3768675508266
1.21,-10.573677120681
1.216,-10.7753310458803
1.222,-10.9784592538188
1.228,-11.1844721063608
1.234,-11.3933978557425
1.24,-11.6053381718965
1.246,-11.8204182413088
1.252,-12.0387724126894
1.258,-12.2605337440752
1.264,-12.4858214697065
1.27,-12.7147106044786
1.276,-12.9470308564899
1.282,-15.4120234845021
1.288,-15.6846319164293
1.294,-15.9409367629976
1.3,-16.1934325893707
1.306,-16.4396237453868
1.312,-16.6807775083266
1.318,-16.916623014878
1.324,-17.1460462788551
1.33,-17.3697231952657
1.336,-17.5881141712217
1.342,-17.800240217568
1.348,-18.0067750434576
1.354,-18.2070514300413
1.36,-18.403578353888
1.366,-18.5942258330261
1.372,-18.7791936906881
1.378,-18.9608178757284
1.384,-19.1372413207965
1.39,-19.3117797992823
1.396,-19.4799829193616
1.402,-19.6450196983423
1.408,-19.8072152697599
1.414,-19.9672080420715
1.42,-20.1213785210382
1.426,-20.2793937236295
1.432,-20.4328081446818
1.438,-20.5843823430161
1.444,-20.7345439967724
1.45,-20.8835260219308
1.456,-21.0315974232101
1.462,-21.1786069635973
1.468,-21.3250585275389
1.474,-21.4709051126995
1.48,-21.6162267015004
1.486,-21.7610338900695
1.492,-21.8996560566601
1.498,-22.0499060593031
1.504,-22.1933558911755
1.51,-22.336318199573
1.516,-22.4786315118792
1.522,-22.6201375098104
1.528,-22.7606456504009
1.534,-22.899927173821
1.54,-23.0377128538408
1.546,-23.1736917941612
1.552,-23.3075108180629
1.558,-23.4387744143242
1.564,-23.5668733275965
1.57,-23.691245169251
1.576,-23.8119784232943
1.582,-23.9284418741663
1.588,-24.0399847779499
1.594,-24.1459421591766
1.6,-24.2456413470298
1.606,-24.3384097350224
1.612,-24.4235836784546
1.618,-24.5005183612921
1.624,-24.5685983710183
1.63,-24.6272486193154
1.636,-24.6759451392384
1.642,-24.7142251707524
1.648,-24.7416957943252
1.654,-24.7580401229699
1.66,-24.7630195425615
1.666,-24.7564692061986
1.672,-24.7382804124803
1.678,-24.7083521557509
1.684,-24.6664510851801
1.69,-24.6117038260091
1.696,-24.5396937993863
1.702,-24.3832828892474
1.708,-24.4536567636435
1.714,-24.3406610039941
1.72,-24.2360136877814
1.726,-24.1268926723292
1.732,-24.0117656703134
1.738,-23.8906017249563
1.744,-23.7637568872913
1.75,-23.6317155792012
1.756,-23.4950049731555
1.762,-23.3541592032184
1.768,-23.209701772807
1.774,-23.062135990441
1.78,-22.9119395851248
1.786,-22.7595618540143
1.792,-22.6054225969196
1.798,-22.4499125791214
1.804,-22.2933957337963
1.81,-22.136214221341
1.816,-21.9787001157327
1.822,-21.8212075900121
1.828,-21.6642309643619
1.834,-21.5090904406226
1.84,-21.3695260052959
1.846,-21.2228232263611
1.852,-21.0368581566645
1.858,-20.8815692192796
1.864,-20.7285549336969
1.87,-20.5771604506532
1.876,-20.4274568357488
1.882,-20.279494563741
1.888,-20.1327698230664
1.894,-19.9840152680115
1.9,-19.8152876460119
1.906,-19.534569055149
1.912,-19.1214098732339
1.918,-19.0376336849187
1.924,-18.986679493531
1.93,-18.8925617007812
1.936,-18.7764856709398
1.942,-18.6505107779073
1.948,-18.5206563179978
1.954,-18.390585279665
1.96,-18.2630710453616
1.966,-18.1404566912831
1.972,-18.0246093495073
1.978,-17.9166257239708
1.984,-17.816542810383
1.99,-17.723300986425
1.996,-17.6350577231503
2.002,-17.5497195470251
2.008,-17.4654386648947
2.014,-17.380894038536
2.02,-17.2953372815241
2.026,-17.2084896655048
2.032,-17.1203898345615
2.038,-17.031255432381
2.044,-16.941382409963
2.05,-16.8510820419023
2.056,-16.7606466237873
2.062,-16.6703339345054
2.068,-16.5803626945466
2.074,-16.4909138168121
2.08,-16.4021342955986
2.086,-16.3141419693066
2.092,-16.2270302499213
2.098,-16.1408724065639
2.104,-16.0557252584722
2.11,-15.9716322682866
2.116,-15.8886260880923
2.122,-15.8067306329088
2.128,-15.727388333774
2.134,-15.6507290897791
2.14,-15.5753253873261
2.146,-15.5011205503248
2.152,-15.428051408588
2.158,-15.3560473302909
2.164,-15.2850291264966
2.17,-15.214907812799
2.176,-15.1455832119508
2.182,-15.0769423802451
2.188,-15.008857839431
2.194,-14.9411855950368
2.2,-14.8737629209465
2.206,-14.8064058882966
2.212,-14.738906612497
2.218,-14.6710301808127
2.224,-14.6025111917796
2.23,-14.5330497494515
2.236,-14.4623064879827
2.242,-14.3898952896809
2.248,-14.3153685896971
2.254,-14.2381687581113
2.26,-14.157292064069
2.266,-14.1033972783076
2.272,-13.989413752262
2.278,-13.895943377348
2.284,-13.7973310623015
2.29,-13.6924070142646
2.296,-13.5802517455903
2.302,-13.4599586477014
2.308,-13.3306095910843
2.314,-13.1912825149625
2.32,-13.0410701551956
2.326,-12.8791057458945
2.332,-12.7045943549953
2.338,-12.5168488900137
2.344,-12.3153295594829
2.35,-12.0996851315479
2.356,-11.8697938595784
2.362,-11.6258015511387
2.368,-11.3681540271094
2.374,-11.0976212219742
2.38,-10.8153104756022
2.386,-10.5226672893305
2.392,-10.2214636866928
2.398,-9.91378414103679
2.404,-9.60224518178011
2.41,-9.28766668889796
2.416,-8.97511606501112
2.422,-8.6659690235884
2.428,-8.36297673996896
2.434,-8.06865037744297
2.44,-7.78528299701245
2.446,-7.51488778042242
2.452,-7.25914199959793
2.458,-7.01934659935287
2.464,-6.79640484147755
2.47,-6.59082101782483
2.476,-6.40271828390592
2.482,-6.23187299263542
2.488,-6.0777616859634
2.494,-5.93961628448355
2.5,-5.81648306811973
2.506,-5.70728176834239
2.512,-5.61086257029003
2.518,-5.52606161466405
2.524,-5.45176231946027
2.53,-5.38699321179254
2.536,-5.33121302265369
2.542,-5.28597599740439
2.548,-5.10245417972427
2.554,-5.17913340712534
2.56,-5.14991348744422
2.566,-5.12068106899375
2.572,-5.09365276058275
2.578,-5.06888892530149
2.584,-5.04613674149483
2.59,-5.02509718351519
2.596,-5.00548755128706
2.602,-4.98705821574018
2.608,-4.96959582070397
2.614,-4.95292183405862
2.62,-4.93688943772421
2.626,-4.92137990640358
2.632,-4.90629895713137
2.638,-4.89157327937767
2.644,-4.87714733426054
2.65,-4.86298045405862
2.656,-4.84904424511735
2.662,-4.83532028345827
2.668,-4.82179808594338
2.674,-4.80847333723813
2.68,-4.79534635222679
2.686,-4.78242075396876
2.692,-4.76970234818991
2.698,-4.75719817637565
2.704,-4.7449157306105
2.71,-4.73286231431731
2.716,-4.72104453396311
2.722,-4.70946790762015
2.728,-4.69813657701993
2.734,-4.68705311043846
2.74,-4.67621838442802
2.746,-4.66563153308596
2.752,-4.65528995424064
2.758,-4.64518936264941
2.764,-4.63532388104746
2.77,-4.62568616065877
2.776,-4.61626752357489
2.782,-4.6070581202161
2.788,-4.59804709589972
2.794,-4.5892227613414
2.8,-4.58057276269324
2.806,-4.57208424746724
2.812,-4.56374402339278
2.818,-4.55553870790479
2.824,-4.54745486654898
2.83,-4.539479139117
2.836,-4.53159835278733
2.842,-4.5237996219453
2.848,-4.51607043469096
2.854,-4.50839872631905
2.86,-4.50077294027471
2.866,-4.49318207725786
2.872,-4.48561573327228
2.878,-4.47806412749934
2.884,-4.47051812092515
2.89,-4.4629692266704
2.896,-4.45540961296861
2.902,-4.44783209971573
2.908,-4.44023014947679
2.914,-4.4325978537865
2.92,-4.42492991552475
2.926,-4.41722162808649
2.932,-4.40946885200173
2.938,-4.40166798959692
2.944,-4.39381595822524
2.95,-4.38591016253151
2.956,-4.37794846615898
2.962,-4.36992916324967
2.968,-4.36185095003877
2.974,-4.35371289679661
2.98,-4.34551442032858
2.986,-4.33725525720492
2.992,-4.32893543785789
2.998,-4.32055526165294
3.004,-4.31211527301423
3.01,-4.30361623866093
3.016,-4.29505912599103
3.022,-4.28644508263207
3.028,-4.27777541716352
3.034,-4.26905158100359
3.04,-4.26027515144312
3.046,-4.25144781580096
3.052,-4.24257135666897
3.058,-4.23364763820942
3.064,-4.22467859346408
3.07,-4.21566621263117
3.076,-4.2066125322649
3.082,-4.19751962535104
3.088,-4.18838959221151
3.094,-4.17922455219136
3.1,-4.17002663608184
3.106,-4.16079797923434
3.112,-4.15154071532102
3.118,-4.14225697069972
3.124,-4.13294885934174
3.13,-4.12361847828362
3.136,-4.11426790356494
3.142,-4.10489918661671
3.148,-4.09551435106643
3.154,-4.08611538992771
3.16,-4.07670426314456
3.166,-4.06728289546162
3.172,-4.057853174594
3.178,-4.04841694967174
3.184,-4.03897602993541
3.19,-4.02953218366141
3.196,-4.02008713729649
3.202,-4.01064257478274
3.208,-4.00120013705563
3.214,-3.99176142169879
3.22,-3.98232798274058
3.226,-3.97290133057858
3.232,-3.96348293201913
3.238,-3.95407421042018
3.244,-3.94467654592646
3.25,-3.935291275787
3.256,-3.92599224688599
3.262,-3.91672158963418
3.268,-3.90748046605244
3.274,-3.89827009744187
3.28,-3.88909176561585
3.286,-3.87994681413838
3.292,-3.87083664956541
3.298,-3.86176274268582
3.304,-3.85272662975837
3.31,-3.84372991374057
3.316,-3.8347742655051
3.322,-3.82586142503913
3.328,-3.81699320262143
3.334,-3.80817147997203
3.34,-3.79939821136837
3.346,-3.79067542472195
3.352,-3.78200522260883
3.358,-3.77338978324685
3.364,-3.76483136141222
3.37,-3.75633228928758
3.376,-3.747894977233
3.382,-3.73952191447147
3.388,-3.73121566967922
3.394,-3.72297889147148
3.4,-3.71481430877337
3.406,-3.70672473106538
3.412,-3.69871304849241
3.418,-3.69078223182499
3.424,-3.68293533226083
3.43,-3.67517548105445
3.436,-3.66750588896264
3.442,-3.65992984549268
3.448,-3.65245071794044
3.454,-3.64507195020525
3.46,-3.63779706136796
3.466,-3.63062964401903
3.472,-3.62357336232322
3.478,-3.6166319498076
3.484,-3.6098092068599
3.49,-3.60310899792444
3.496,-3.59653524838346
3.502,-3.59009194111199
3.508,-3.58378311269536
3.514,-3.57761284929909
3.52,-3.57158528218207
3.526,-3.56570458284491
3.532,-3.55997495780677
3.538,-3.55440064300564
3.544,-3.54898589781834
3.55,-3.54373499869879
3.556,-3.53865223243498
3.562,-3.53374188902728
3.568,-3.52900825419342
3.574,-3.52445560150777
3.58,-3.52008818418568
3.586,-3.51591022652662
3.592,-3.51192591503266
3.598,-3.50813938922271
3.604,-3.50455473216599
3.61,-3.50117596076177
3.616,-3.49800701579641
3.622,-3.49505175181187
3.628,-3.49231392682425
3.634,-3.48979719193404
3.64,-3.48750508087378
3.646,-3.48544099954243
3.652,-3.48360821557888
3.658,-3.48200984803084
3.664,-3.48064885717771
3.67,-3.47952803456954
3.676,-3.478649993346
3.682,-3.47801715890177
3.688,-3.47763175996617
3.694,-3.47749582016616
3.7,-3.47761115014236
3.706,-3.477979340288
3.712,-3.47860175418011
3.718,-3.47947952277111
3.724,-3.48061353940747
3.73,-3.48200445573928
3.736,-3.48365267858193
3.742,-3.48555836778709
3.748,-3.48772143517604
3.754,-3.49014154458303
3.76,-3.49281811305135
3.766,-3.49575031321815
3.772,-3.49893707691766
3.778,-3.50237710002558
3.784,-3.50606884855981
3.79,-3.51001056604512
3.796,-3.51420028214191
3.802,-3.51863582253083
3.808,-3.52331482003774
3.814,-3.5282347269757
3.82,-3.53339282867315
3.826,-3.53878625815095
3.832,-3.544412011904
3.838,-3.55026696673781
3.844,-3.55634789760502
3.85,-3.56265149638289
3.856,-3.56917439152927
3.862,-3.57591316855267
3.868,-3.58286439123063
3.874,-3.59002462351104
3.88,-3.59739045203212
3.886,-3.6049585091999
3.892,-3.61272549676588
3.898,-3.62068820985311
3.904,-3.62884356138623
3.91,-3.63718860688914
3.916,-3.64572056962421
3.922,-3.65443686605839
3.928,-3.66333513165455
3.934,-3.67241324700104
3.94,-3.68166936430847
3.946,-3.69110193432028
3.952,-3.70070973370294
3.958,-3.71049189300207
3.964,-3.72044792527319
3.97,-3.73057775551894
3.976,-3.74088175109039
3.982,-3.75136075323579
3.988,-3.76201611000841
3.994,-3.77284971077365
4,-3.78386402258569
4.006,-3.79506212873423
4.012,-3.80644776979253
4.018,-3.81802538752808
4.024,-3.82980017206607
4.03,-3.84177811272179
4.036,-3.85396605293999
4.042,-3.86637174979481
4.048,-3.879003938509
4.054,-3.89187240244416
4.06,-3.90498804898646
4.066,-3.91836299170082
4.072,-3.93201063903962
4.078,-3.94594578976025
4.084,-3.96018473501391
4.09,-3.97474536679751
4.096,-3.98964729209015
4.102,-4.00491195149537
4.108,-4.02056274054753
4.114,-4.03662513097271
4.12,-4.05312678807293
4.126,-4.07009767897098
4.132,-4.08757016464758
4.138,-4.10557906645747
4.144,-4.12416169505824
4.15,-4.14335782636982
4.156,-4.16320960526969
4.162,-4.18376135323054
4.168,-4.20505925110852
4.174,-4.22715086299649
4.18,-4.25008446184223
4.186,-4.27390811301454
4.192,-4.29866846911548
4.198,-4.32440922941364
4.204,-4.35116922208586
4.21,-4.37898007922012
4.216,-4.40786349579356
4.222,-4.43782809717637
4.228,-4.46886598719874
4.234,-4.50094911117733
4.24,-4.53402564375341
4.246,-4.56801669436684
4.252,-4.60281370312498
4.258,-4.63827696075717
4.264,-4.67423570785556
4.27,-4.7104902289189
4.276,-4.74681623818485
4.282,-4.78297165054734
4.288,-4.81870555412984
4.294,-4.85376888583863
4.3,-4.88792601205668
4.306,-4.92096619801724
4.312,-4.95271386884447
4.318,-4.98303665500633
4.324,-5.01185046904424
4.33,-5.03912123332738
4.336,-5.0648632966072
4.342,-5.08913495945609
4.348,-5.1120318092256
4.354,-5.1336787081378
4.36,-5.15422128219651
4.366,-5.17381765058167
4.372,-5.19263095738813
4.378,-5.21082306438428
4.384,-5.22854957130726
4.39,-5.24595617257777
4.396,-5.26317624651905
4.402,-5.28032950506554
4.408,-5.29752150183662
4.414,-5.31484379470932
4.42,-5.33237457581643
4.426,-5.3501796087829
4.432,-5.36831334360873
4.438,-5.38682010961889
4.444,-5.40573531381385
4.45,-5.42508659459647
4.456,-5.44489489895116
4.462,-5.46517546499176
4.468,-5.48593870193295
4.474,-5.50719096663671
4.48,-5.5289352405892
4.486,-5.5511717140565
4.492,-5.57389828573775
4.498,-5.5971109868739
4.504,-5.62080433878144
4.51,-5.64497165239128
4.516,-5.66960527774696
4.522,-5.69469681066982
4.528,-5.72023726301096
4.534,-5.74621720213172
4.54,-5.77262686451791
4.546,-5.79945624775599
4.552,-5.82669518448939
4.558,-5.85433340143333
4.564,-5.88236056605305
4.57,-5.91076632310098
4.576,-5.93954032285534
4.582,-5.96867224260163
4.588,-5.99815180264213
4.594,-6.02796877790197
4.6,-6.05811300601711
4.606,-6.08857439263643
4.612,-6.11934291454081
4.618,-6.15040862107467
4.624,-6.18176163429545
4.63,-6.21339214817161
4.636,-6.24529042709744
4.642,-6.27744680394169
4.648,-6.30985167780361
4.654,-6.34249551161519
4.66,-6.37536882969891
4.666,-6.40846221536631
4.672,-6.44176630862282
4.678,-6.4752718040284
4.684,-6.50896944874968
4.69,-6.54285004082917
4.696,-6.57690442768779
4.702,-6.61112350487011
4.708,-6.64549821503588
4.714,-6.68001954719698
4.72,-6.71467853619505
4.726,-6.74946626241244
4.732,-6.78437385170669
4.738,-6.81939247555731
4.744,-6.85451335141187
4.75,-6.88972774321813
4.756,-6.92502696212758
4.762,-6.96040236735592
4.768,-6.99584536718527
4.774,-7.03134742009322
4.78,-7.06690003599337
4.786,-7.10249477757252
4.792,-7.1381232617095
4.798,-7.17377716096106
4.804,-7.20944820510021
4.81,-7.24512818269303
4.816,-7.28080894269986
4.822,-7.31648239608733
4.828,-7.35214051743794
4.834,-7.38777534654406
4.84,-7.4233789899737
4.846,-7.45894362259567
4.852,-7.49446148905177
4.858,-7.52992490516444
4.864,-7.56532625926808
4.87,-7.60065801345288
4.876,-7.6359127047101
4.882,-7.67108294596812
4.888,-7.70616142700889
4.894,-7.74114091525452
4.9,-7.77601425641445
4.906,-7.81077437498354
4.912,-7.84541427458214
4.918,-7.87992703812929
4.924,-7.91430582784096
4.93,-7.94854388504538
4.936,-7.98263452980825
4.942,-8.01657116036101
4.948,-8.05034725232643
4.954,-8.08395635773571
4.96,-8.11739210383305
4.966,-8.15064819166386
4.972,-8.18371839444401
4.978,-8.21659655570896
4.984,-8.2492765872425
4.99,-8.28175246678652
4.996,-8.31401823553482
5.002,-8.34606799541589
5.008,-8.37789590617141
5.014,-8.40949618223958
5.02,-8.44086308945501
5.026,-8.47199094157942
5.032,-8.50287409668049
5.038,-8.53350695337954
5.044,-8.5638839469924
5.05,-8.59399954559131
5.056,-8.62384824602054
5.062,-8.65342456990216
5.068,-8.68272305967399
5.074,-8.71173827470613
5.08,-8.74046478754845
5.086,-8.76889718036645
5.092,-8.79703004162931
5.098,-8.82485796311936
5.104,-8.85237553733865
5.11,-8.8795773553939
5.116,-8.90645800544761
5.122,-8.93301207182802
5.128,-8.95923413489665
5.134,-8.98511877177651
5.14,-9.010660558048
5.146,-9.03585407052308
5.152,-9.06069389120968
5.158,-9.08517461257925
5.164,-9.10929084424893
5.17,-9.13303722118679
5.176,-9.1564084135431
5.182,-9.17939913820279
5.188,-9.20200417214344
5.194,-9.22421836766917
5.2,-9.24603666957396
5.206,-9.26745413426704
5.212,-9.28846595086887
5.218,-9.30906746425831
5.224,-9.32925420002031
5.23,-9.34902189120807
5.236,-9.36836650679617
5.242,-9.38728428165997
5.248,-9.40577174787398
5.254,-9.42382576707749
5.26,-9.44144356361126
5.266,-9.45862275808473
5.272,-9.47536140099117
5.278,-9.49165800594859
5.284,-9.50751158211014
5.29,-9.52292166525826
5.296,-9.53788834707623
5.302,-9.55241230207766
5.308,-9.56649481167221
5.314,-9.58013778485446
5.32,-9.59334377502326
5.326,-9.60611599247181
5.332,-9.61845831213434
5.338,-9.63037527623292
5.344,-9.64187209153718
5.35,-9.6529546210295
5.356,-9.6636293698565
5.362,-9.67390346554292
5.368,-9.68378463254356
5.374,-9.6932811613101
5.38,-9.70240187215028
5.386,-9.7111560742531
5.392,-9.71955352034362
5.398,-9.7276043575116
5.404,-9.73531907482671
5.41,-9.74270844840886
5.416,-9.74978348466176
5.422,-9.75655536240206
5.428,-9.76303537462405
5.434,-9.76923487063053
5.44,-9.77516519923607
5.446,-9.7808376537094
5.452,-9.78626341906971
5.458,-9.79145352228802
5.464,-9.79641878587339
5.47,-9.80116978524482
5.476,-9.80571681020802
5.482,-9.81006983077183
5.488,-9.81423846745658
5.494,-9.81823196616569
5.5,-9.82205917761674
5.506,-9.8251111783959
5.512,-9.82789087713297
5.518,-9.83040171380232
5.524,-9.83264717051649
5.53,-9.83463076870489
5.536,-9.83635606633833
5.542,-9.83782665520226
5.548,-9.83904615822095
5.554,-9.84001822683486
5.56,-9.84074653843341
5.566,-9.84123479384487
5.572,-9.84148671488535
5.578,-9.84150604196835
5.584,-9.84129653177655
5.59,-9.84086195499681
5.596,-9.84020609412002
5.602,-9.83933274130644
5.608,-9.83824569631771
5.614,-9.83694876451615
5.62,-9.83544575493215
5.626,-9.83374047839997
5.632,-9.83183674576261
5.638,-9.82973836614584
5.644,-9.82744914530174
5.65,-9.82497288402173
5.656,-9.8223133766191
5.662,-9.81947440948097
5.668,-9.81645975968949
5.674,-9.81327319371189
5.68,-9.80991846615917
5.686,-9.80639931861282
5.692,-9.80271947851922
5.698,-9.79888265815099
5.704,-9.79489255363466
5.71,-9.79075284404409
5.716,-9.78646719055854
5.722,-9.78203923568491
5.728,-9.77747260254295
5.734,-9.77277089421265
5.74,-9.76793769314274
5.746,-9.76297656061922
5.752,-9.75789103629282
5.758,-9.75268463776416
5.764,-9.74736086022546
5.77,-9.74192317615738
5.776,-9.73637503507969
5.782,-9.73071986335439
5.788,-9.72496106403968
5.794,-9.71910201679327
5.8,-9.71314607782331
5.806,-9.70709657988532
5.812,-9.7009568323231
5.818,-9.69473012115185
5.824,-9.68841970918127
5.83,-9.68202883617655
5.836,-9.67556071905492
5.842,-9.66901855211517
5.848,-9.66240550729761
5.854,-9.6557247344715
5.86,-9.64897936174701
5.866,-9.64217249580834
5.872,-9.63530722226463
5.878,-9.62838660601466
5.884,-9.62141369162152
5.89,-9.61439150369268
5.896,-9.60732304726097
5.902,-9.60021130816114
5.908,-9.59305925339684
5.914,-9.585869831492
5.92,-9.57864597282045
5.926,-9.57139058990695
5.932,-9.56410657769261
5.938,-9.55679681375689
5.944,-9.54946415848812
5.95,-9.5421114551938
5.956,-9.53474153014147
5.962,-9.52735719252065
5.968,-9.51996123431531
5.974,-9.51255643007658
5.98,-9.50514553658425
5.986,-9.4977312923858
5.992,-9.49031641720093
5.998,-9.48290361117949
6.004,-9.47549555400066
6.01,-9.46809490380086
6.016,-9.46070429591826
6.022,-9.45332634144199
6.028,-9.44596362555435
6.034,-9.43861870565546
6.04,-9.43129410926037
6.046,-9.42399233165996
6.052,-9.41671583333886
