"Freq [GHz]","dB(St(1,6)) []"
1,-13.0683810178993
1.006,-16.5597533979668
1.012,-17.2375113921582
1.018,-17.4495019784066
1.024,-17.2912212392167
1.03,-16.8668246289729
1.036,-16.2964419466561
1.042,-15.6723255784847
1.048,-15.0528551904575
1.054,-14.4682825879927
1.06,-13.93468464417
1.066,-13.456573917461
1.072,-13.0355019984363
1.078,-12.6693653055197
1.084,-12.3564285447319
1.09,-12.0935751025987
1.096,-11.8779221075498
1.102,-11.7066593157644
1.108,-11.5771598473505
1.114,-11.4868455728535
1.12,-11.4334246726444
1.126,-11.4147017495254
1.132,-11.4286226458043
1.138,-11.4732270522234
1.144,-11.5466999488917
1.15,-11.6472385050518
1.156,-11.773159410547
1.162,-11.9228075641266
1.168,-12.0946261314058
1.174,-12.287689249223
1.18,-12.497536594479
1.186,-12.7266026866463
1.192,-12.9714437076669
1.198,-13.2306139463096
1.204,-13.5024181568108
1.21,-13.7833167286534
1.216,-14.0781970266203
1.222,-14.3771652608104
1.228,-14.681257103095
1.234,-14.9879815797693
1.24,-15.2947525173747
1.246,-15.5987897226191
1.252,-15.8971104225652
1.258,-16.1865355004918
1.264,-16.4636788771072
1.27,-16.7247707395834
1.276,-16.9637870857687
1.282,-17.2129032236386
1.288,-17.3840819838841
1.294,-17.5520584667506
1.3,-17.6917504482297
1.306,-17.8016968167587
1.312,-17.8817845516976
1.318,-17.932778873587
1.324,-17.9561788407052
1.33,-17.9540809722523
1.336,-17.9290342298749
1.342,-17.8839392723401
1.348,-17.8226195303341
1.354,-17.7396277065399
1.36,-17.6529767729624
1.366,-17.5550055717931
1.372,-17.4496755929047
1.378,-17.3390310300689
1.384,-17.2246723922003
1.39,-17.1078554288494
1.396,-16.9895245403372
1.402,-16.8703405767839
1.408,-16.7507090252809
1.414,-16.6308016076792
1.42,-16.5103704097813
1.426,-16.3904865296863
1.432,-16.2692264675428
1.438,-16.147072561632
1.444,-16.0235883294898
1.45,-15.8983973013993
1.456,-15.7711666922214
1.462,-15.6416341747821
1.468,-15.5096340261131
1.474,-15.3751178948263
1.48,-15.2381684595886
1.486,-15.0990051246538
1.492,-14.9579815694472
1.498,-14.8155756225122
1.504,-14.6723725274003
1.51,-14.5290431384323
1.516,-14.386318871367
1.522,-14.2449653134376
1.528,-14.1057562797913
1.534,-13.9694498290258
1.54,-13.8367673763979
1.546,-13.7083766304031
1.552,-13.5848786805148
1.558,-13.4667992203543
1.564,-13.354388070857
1.57,-13.2479031421294
1.576,-13.1483282231182
1.582,-13.0558065449412
1.588,-12.9704261547769
1.594,-12.8922252899826
1.6,-12.8211975839702
1.606,-12.7572970535044
1.612,-12.7004428335904
1.618,-12.6505236386403
1.624,-12.6074019378532
1.63,-12.5709178393273
1.636,-12.5408926817591
1.642,-12.5171323348697
1.648,-12.4994302096313
1.654,-12.4875699756622
1.66,-12.4813279720184
1.666,-12.4804752679946
1.672,-12.4847792476631
1.678,-12.4940043291361
1.684,-12.5079104232948
1.69,-12.5262425888639
1.696,-12.5486611772152
1.702,-12.5723984813402
1.708,-12.6072290292244
1.714,-12.6408840182586
1.72,-12.6782514250888
1.726,-12.7188838999031
1.732,-12.7625496228483
1.738,-12.8090534470402
1.744,-12.8582156890163
1.75,-12.9098671986528
1.756,-12.9638475684797
1.762,-13.0200034670907
1.768,-13.0781804110683
1.774,-13.1387196237335
1.78,-13.2002279123399
1.786,-13.2637377980907
1.792,-13.3287990221125
1.798,-13.3952981486846
1.804,-13.4631338057442
1.81,-13.5322295165241
1.816,-13.6024630219667
1.822,-13.6737832642115
1.828,-13.7461096801414
1.834,-13.819373807884
1.84,-13.8935129428274
1.846,-13.9684693684548
1.852,-14.0441911425748
1.858,-14.1206302846634
1.864,-14.197743812308
1.87,-14.2754930901286
1.876,-14.3538437033643
1.882,-14.4327652919866
1.888,-14.5122313946954
1.894,-14.5922193118925
1.9,-14.6727100223869
1.906,-14.7536884047572
1.912,-14.835149931423
1.918,-14.9170447373118
1.924,-14.9994236641864
1.93,-15.0822538968874
1.936,-15.1655365720073
1.942,-15.2492720424178
1.948,-15.3334606571816
1.954,-15.4181002071273
1.96,-15.5031791987633
1.966,-15.5886569224449
1.972,-15.6743858095294
1.978,-15.7595995680831
1.984,-15.8012783907044
1.99,-15.9424400189167
1.996,-16.0290819780956
2.002,-16.1177967881575
2.008,-16.2075543701915
2.014,-16.298194815646
2.02,-16.3896972430006
2.026,-16.4820819872168
2.032,-16.5753868965476
2.038,-16.6696596351421
2.044,-16.7649547102435
2.05,-16.861332201105
2.056,-16.9588571934688
2.062,-17.0575995389907
2.068,-17.1576337765421
2.074,-17.2590391384644
2.08,-17.3618996020306
2.086,-17.4663039634689
2.092,-17.5723459200512
2.098,-17.680124149617
2.104,-17.7897423785572
2.11,-17.9013094296989
2.116,-18.0149392411821
2.122,-18.1307508465343
2.128,-18.2480219805503
2.134,-18.3677581522139
2.14,-18.4910860609569
2.146,-18.6179586965117
2.152,-18.7483212405996
2.158,-18.8821108739791
2.164,-19.0192565726954
2.17,-19.1596788929754
2.176,-19.3032897456677
2.182,-19.4499921631284
2.188,-19.5996800641581
2.194,-19.7522380261965
2.2,-19.9075410787314
2.206,-20.065454538144
2.212,-20.2258339124466
2.218,-20.3885249152308
2.224,-20.5533636425305
2.23,-20.7201769854712
2.236,-20.8887833773298
2.242,-21.0589940085499
2.248,-21.2306146911548
2.254,-21.4034486204734
2.26,-21.5773003755978
2.266,-21.7519816332799
2.272,-21.9273192625812
2.278,-22.1031667494551
2.284,-22.2794203174316
2.29,-22.4560417319862
2.296,-22.6330907031264
2.302,-22.8107711683828
2.308,-22.9894976862834
2.314,-23.1699906944343
2.32,-23.35341179713
2.326,-23.5415493752599
2.332,-23.7370493277085
2.338,-23.9436189441868
2.344,-24.1659035631863
2.35,-24.4080573834606
2.356,-24.6684158210081
2.362,-24.9259411080448
2.368,-25.1220215232604
2.374,-25.1773677347168
2.38,-25.0791199037809
2.386,-24.9130655725959
2.392,-24.7653432902884
2.398,-24.664545358366
2.404,-24.6044085489311
2.41,-24.57094319881
2.416,-24.5524864079113
2.422,-24.541129712799
2.428,-24.531897218866
2.434,-24.5217715919926
2.44,-24.50898594396
2.446,-24.4925666327787
2.452,-24.4720471787131
2.458,-24.4472888587929
2.464,-24.418366192564
2.47,-24.3854919812481
2.476,-24.348966830766
2.482,-24.3091441883495
2.488,-24.2664054939128
2.494,-24.2211421404146
2.5,-24.1737421741231
2.506,-24.1245804053709
2.512,-24.0740110496054
2.518,-24.0223622964486
2.524,-23.9699323803095
2.53,-23.9169868403858
2.536,-23.8637567345822
2.542,-23.8104376251804
2.548,-23.7571891925249
2.554,-23.7041353616517
2.56,-23.6513648488041
2.566,-23.5989320520681
2.572,-23.5468582241315
2.578,-23.4951328762283
2.584,-23.4437153712197
2.59,-23.3925366708761
2.596,-23.3415012080865
2.602,-23.2904888591536
2.608,-23.2393569947722
2.614,-23.18794259088
2.62,-23.1360643824962
2.626,-23.0835250450342
2.632,-23.0301133885213
2.638,-22.9756065507791
2.644,-22.9197721760115
2.65,-22.8623705654896
2.656,-22.8031567872061
2.662,-22.7418827315587
2.668,-22.6782991003857
2.674,-22.6121573170888
2.68,-22.5432113461875
2.686,-22.4712194115187
2.692,-22.3959456034671
2.698,-22.317161367128
2.704,-22.2346468651817
2.71,-22.1481922115267
2.716,-22.0575985743668
2.722,-21.9626791504754
2.728,-21.8632600157434
2.734,-21.7591808608368
2.74,-21.6502956247986
2.746,-21.5364730437159
2.752,-21.4175971360852
2.758,-21.2935676512464
2.764,-21.1643005121882
2.77,-21.0297282891814
2.776,-20.8898007460755
2.782,-20.7444855067472
2.788,-20.5937688951653
2.794,-20.4376570088937
2.8,-20.2761770926473
2.806,-20.1093792857824
2.812,-19.9373388253359
2.818,-19.7601587943423
2.824,-19.5779735134622
2.83,-19.3909526820792
2.836,-19.1993063823657
2.842,-19.0032910654727
2.848,-18.8032166416679
2.854,-18.5994547942306
2.86,-18.392448628094
2.866,-18.1827237463613
2.872,-17.9709008191394
2.878,-17.7577096698277
2.884,-17.5440048594632
2.89,-17.3307827172527
2.896,-17.1191997885784
2.902,-16.9105928514867
2.908,-16.7065012187881
2.914,-16.5086935291767
2.92,-16.3192049405921
2.926,-16.1404000073845
2.932,-15.9751015658046
2.938,-15.8268998429289
2.944,-15.7010076654596
2.95,-15.607071507597
2.956,-15.5709306399901
2.962,-15.6907396858339
2.968,-15.4637544573392
2.974,-15.1553483949473
2.98,-15.1529918776293
2.986,-15.1888786456088
2.992,-15.2495908262893
2.998,-15.3349888918968
3.004,-15.4450270817451
3.01,-15.5789835526129
3.016,-15.7355804454258
3.022,-15.9131521097353
3.028,-16.1097897040745
3.034,-16.3234606851616
3.04,-16.552105711132
3.046,-16.7937145413435
3.052,-17.046382378318
3.058,-17.3083485181719
3.064,-17.5780196217922
3.07,-17.8539801368271
3.076,-18.1349923485605
3.082,-18.4199882816315
3.088,-18.7080553187519
3.094,-18.9984170537834
3.1,-19.2904106469295
3.106,-19.5834618675618
3.112,-19.8770591284954
3.118,-20.1707281156229
3.124,-20.4640090087907
3.13,-20.7564386034338
3.136,-21.0475396483912
3.142,-21.336819193118
3.148,-21.6237765860057
3.154,-21.9079201117661
3.16,-22.1887894892389
3.166,-22.4659801220261
3.172,-22.7391645907554
3.178,-23.0081075839809
3.184,-23.2726720620399
3.19,-23.5328164008218
3.196,-23.7885839721199
3.202,-24.0400876680453
3.208,-24.287492153572
3.214,-24.5309962806045
3.22,-24.7708173965739
3.226,-25.0071785039236
3.232,-25.2402985624294
3.238,-25.4703857595898
3.244,-25.697633310272
3.25,-25.9222172456778
3.256,-26.1622128522346
3.262,-26.4010419312363
3.268,-26.6385712629289
3.274,-26.8746581114331
3.28,-27.1091493449998
3.286,-27.3418806568215
3.292,-27.5726759074083
3.298,-27.801346612739
3.304,-28.0276916054702
3.31,-28.2514968992247
3.316,-28.4725357881792
3.322,-28.6905692155516
3.328,-28.9053464448529
3.334,-29.1166060665933
3.34,-29.3240773701695
3.346,-29.527482105605
3.352,-29.726536652391
3.358,-29.9209546027042
3.364,-30.1104497537289
3.37,-30.2947394888169
3.376,-30.4735485101526
3.382,-30.6466128670775
3.388,-30.8136842051482
3.394,-30.9745341424777
3.4,-31.1289586632728
3.406,-31.2767824051184
3.412,-31.4178627078819
3.418,-31.5520932893164
3.424,-31.6794074164253
3.43,-31.7997804528301
3.436,-31.9132316806304
3.442,-32.0198253197899
3.448,-32.1196706976166
3.454,-32.2129215535973
3.46,-32.2997744985843
3.466,-32.3804666798754
3.472,-32.4552727329663
3.478,-32.524501124897
3.484,-32.5884900118599
3.49,-32.647602744373
3.496,-32.702223156731
3.502,-32.7527507740948
3.508,-32.7995960613593
3.514,-32.8431758240915
3.52,-32.8839088547332
3.526,-32.9222118983363
3.532,-32.9584959926376
3.538,-32.9931632184083
3.544,-33.0266038785992
3.55,-33.0591941094488
3.556,-33.0912939137961
3.562,-33.1232455964666
3.568,-33.1553725737409
3.574,-33.1879785233838
3.58,-33.2213468382501
3.586,-33.255740344763
3.592,-33.2914012472585
3.598,-33.3285512599805
3.604,-33.3673918900975
3.61,-33.4081048372381
3.616,-33.4508524774875
3.622,-33.4957784023808
3.628,-33.5430079860364
3.634,-33.5926489560933
3.64,-33.6447919464921
3.646,-33.6995110123328
3.652,-33.7568640890366
3.658,-33.8168933798482
3.664,-33.8796256573621
3.67,-33.9450724662775
3.676,-34.0132302160477
3.682,-34.0840801535437
3.688,-34.1575882073999
3.694,-34.2337046974317
3.7,-34.3123639045385
3.706,-34.3934834989536
3.712,-34.47696382772
3.718,-34.5626870660273
3.724,-34.6505162417022
3.73,-34.7402941478998
3.736,-34.8318421660475
3.742,-34.9249590295326
3.748,-35.0194195685843
3.754,-35.1149734883407
3.76,-35.2113442451283
3.766,-35.3082281002755
3.772,-35.4052934458807
3.778,-35.5021805121049
3.784,-35.5985015796702
3.79,-35.6938418328414
3.796,-35.7877609953518
3.802,-35.879795892239
3.808,-35.9694640718714
3.814,-36.0562686019595
3.82,-36.1397041187715
3.826,-36.2192641584601
3.832,-36.2944497329863
3.838,-36.3647790319491
3.844,-36.4297980393238
3.85,-36.4890917567814
3.856,-36.5422956314273
3.862,-36.5891067058169
3.868,-36.6292939530684
3.874,-36.6627072400832
3.88,-36.6892843849887
3.886,-36.7090558443034
3.892,-36.7221466788509
3.898,-36.7287755970744
3.904,-36.7292510468899
3.91,-36.7239645058264
3.916,-36.7133812861075
3.922,-36.6980293103085
3.928,-36.6784864119508
3.934,-36.6553667670449
3.94,-36.629307066306
3.946,-36.6009529981572
3.952,-36.5709465384286
3.958,-36.5399144449596
3.964,-36.5084582457537
3.97,-36.4771458986158
3.976,-36.4465051969958
3.982,-36.4170189072121
3.988,-36.3891215499076
3.994,-36.3631976847522
4,-36.3395815215041
4.006,-36.3185576607594
4.012,-36.3003627615069
4.018,-36.2851879370964
4.024,-36.2731816936107
4.03,-36.2644532423113
4.036,-36.2590760385981
4.042,-36.2570914219936
4.048,-36.2585122536581
4.054,-36.2633264688617
4.06,-36.27150048104
4.066,-36.2829823911265
4.072,-36.2977049706284
4.078,-36.315588399364
4.084,-36.336542749
4.09,-36.3604702116969
4.096,-36.387267079487
4.102,-36.4168254847205
4.108,-36.4490349152481
4.114,-36.4837835201989
4.12,-36.5209592234683
4.126,-36.5604506625451
4.132,-36.6021479702513
4.138,-36.6459434164779
4.144,-36.6917319262048
4.15,-36.7394114890885
4.156,-36.7888834747661
4.162,-36.8400528668269
4.168,-36.8928284271832
4.174,-36.9471228013801
4.18,-37.0028525742291
4.186,-37.059938284065
4.192,-37.118304402915
4.198,-37.1778792889354
4.204,-37.2385951166264
4.21,-37.3003877895717
4.216,-37.3631968397648
4.222,-37.4269653169785
4.228,-37.4916396710957
4.234,-37.5571696298531
4.24,-37.623508074035
4.246,-37.6906109118019
4.252,-37.758436953528
4.258,-37.8269477882604
4.264,-37.8961076626839
4.27,-37.9658833632859
4.276,-38.0362441022509
4.282,-38.1071614074773
4.288,-38.1786090169964
4.294,-38.2505627779749
4.3,-38.323000550405
4.306,-38.3959021155216
4.312,-38.4692490889315
4.318,-38.5430248383991
4.324,-38.6172144061973
4.33,-38.6918044359073
4.336,-38.7667831035288
4.342,-38.8421400527491
4.348,-38.9178663342053
4.354,-38.9939543485689
4.36,-39.0703977932745
4.366,-39.1471916127152
4.372,-39.2243319517212
4.378,-39.3018161121438
4.384,-39.3796425123653
4.39,-39.4578106495575
4.396,-39.5363210645174
4.402,-39.6151753089077
4.408,-39.6943759147363
4.414,-39.7739263659111
4.42,-39.8538310717086
4.426,-39.9340953420009
4.432,-40.0147253640861
4.438,-40.0957281809695
4.444,-40.1771116709478
4.45,-40.2588845283465
4.456,-40.3410562452669
4.462,-40.4236370941934
4.468,-40.5066381113198
4.474,-40.5900710804455
4.48,-40.6739485172984
4.486,-40.7582836541346
4.492,-40.8430904244661
4.498,-40.9283834477654
4.504,-41.0141780139894
4.51,-41.1004900677663
4.516,-41.1873361920797
4.522,-41.2747335912822
4.528,-41.3627000732653
4.534,-41.4512540306023
4.54,-41.5404144204794
4.546,-41.6302007432171
4.552,-41.7206330191793
4.558,-41.8117317638562
4.564,-41.9035179608989
4.57,-41.9960130328709
4.576,-42.089238809472
4.582,-42.1832174929793
4.588,-42.2779716206326
4.594,-42.3735240236841
4.6,-42.4698977828135
4.606,-42.5671161795975
4.612,-42.6652026437051
4.618,-42.7641806954768
4.624,-42.8640738835264
4.63,-42.9649057169884
4.636,-43.0666995920161
4.642,-43.1694787121186
4.648,-43.2732660019042
4.654,-43.3780840137826
4.66,-43.4839548271578
4.666,-43.5908999396291
4.672,-43.6989401496954
4.678,-43.8080954304491
4.684,-43.9183847937245
4.69,-44.0298261441593
4.696,-44.142436122613
4.702,-44.256229938383
4.708,-44.3712211896552
4.714,-44.4874216716305
4.72,-44.6048411717769
4.726,-44.7234872516748
4.732,-44.8433650149536
4.738,-44.9644768608515
4.744,-45.0868222229895
4.75,-45.2103972930176
4.756,-45.3351947288807
4.762,-45.4612033475669
4.768,-45.5884078023392
4.774,-45.7167882446239
4.78,-45.8463199709342
4.786,-45.976973055459
4.792,-46.1087119692382
4.798,-46.241495187195
4.804,-46.3752747846981
4.81,-46.5099960257965
4.816,-46.6455969458048
4.822,-46.7820079315291
4.828,-46.9191513031095
4.834,-47.0569409022199
4.84,-47.1952816922142
4.846,-47.3340693767214
4.852,-47.4731900441797
4.858,-47.6125198468389
4.864,-47.7519247238309
4.87,-47.8912601789906
4.876,-48.0303711251638
4.882,-48.1690918077171
4.888,-48.3072458208273
4.894,-48.4446462307861
4.9,-48.5810958209619
4.906,-48.716387473108
4.912,-48.8503046993207
4.918,-48.982622338032
4.924,-49.1131074258825
4.93,-49.2415202550784
4.936,-49.3676156228293
4.942,-49.4911442756513
4.948,-49.6118545467033
4.954,-49.7294941789439
4.96,-49.8438123208573
4.966,-49.954561674948
4.972,-50.0615007723858
4.978,-50.1643963403601
4.984,-50.2630257222338
4.99,-50.3571793048284
4.996,-50.4466629025348
5.002,-50.5313000447849
5.008,-50.6109341120931
5.014,-50.6854302666315
5.02,-50.7546771262857
5.026,-50.8185881363841
5.032,-50.8771026006604
5.038,-50.9301863422376
5.044,-50.9778319760984
5.05,-51.0200587861152
5.056,-51.0569122116705
5.062,-51.0884629605832
5.068,-51.1148057758795
5.074,-51.1360578933808
5.08,-51.152357234701
5.086,-51.1638603857657
5.092,-51.1707404142448
5.098,-51.173184580319
5.104,-51.1713919941391
5.11,-51.1655712704029
5.116,-51.1559382260235
5.122,-51.142713661246
5.128,-51.1261212581944
5.134,-51.1063856240699
5.14,-51.0837304994117
5.146,-51.058377145282
5.152,-51.0305429171531
5.158,-51.0004400278526
5.164,-50.9682744972417
5.17,-50.9342452824306
5.176,-50.8985435792669
5.182,-50.8613522835379
5.188,-50.8228455987402
5.194,-50.7831887763137
5.2,-50.7425379738227
5.206,-50.7010402165961
5.212,-50.6588334487289
5.218,-50.6160466600089
5.224,-50.5728000761885
5.23,-50.5292054010134
5.236,-50.4853660994804
5.242,-50.4413777128917
5.248,-50.397328197357
5.254,-50.3532982784471
5.26,-50.3093618156994
5.266,-50.2655861716053
5.272,-50.2220325805614
5.278,-50.1787565140403
5.284,-50.135808038927
5.29,-50.0932321665812
5.296,-50.0510691907189
5.302,-50.0093550126748
5.308,-49.9681214530054
5.314,-49.9273965487311
5.32,-49.8872048358032
5.326,-49.8475676166176
5.332,-49.808503212593
5.338,-49.7700272019906
5.344,-49.7321526432756
5.35,-49.6948902844233
5.356,-49.6582487586433
5.362,-49.6222347670528
5.368,-49.5868532488686
5.374,-49.5521075397091
5.38,-49.5179995186118
5.386,-49.4845297443766
5.392,-49.4516975818383
5.398,-49.4195013186625
5.404,-49.3879382732463
5.41,-49.3570048942828
5.416,-49.3266968525317
5.422,-49.2970091253124
5.428,-49.2679360742137
5.434,-49.2394715164889
5.44,-49.2116087905795
5.446,-49.1843408161885
5.452,-49.1576601492957
5.458,-49.1315590324881
5.464,-49.1060294409518
5.47,-49.0810631244509
5.476,-49.0566516455986
5.482,-49.0327864147027
5.488,-49.0094587214512
5.494,-48.9866597636832
5.5,-48.9643806734745
5.506,-48.9361775158988
5.512,-48.9073118991468
5.518,-48.8777996214983
5.524,-48.8476565334394
5.53,-48.8168985168315
5.536,-48.7855414647733
5.542,-48.7536012621818
5.548,-48.7210937671196
5.554,-48.688034792886
5.56,-48.6544400908913
5.566,-48.6203253343238
5.572,-48.5857061026191
5.578,-48.5505978667367
5.584,-48.5150159752437
5.59,-48.4789756412056
5.596,-48.4424919298784
5.602,-48.4055797471933
5.608,-48.3682538290262
5.614,-48.3305287312373
5.62,-48.2924188204668
5.626,-48.2539382656713
5.632,-48.2151010303814
5.638,-48.1759208656613
5.644,-48.1364113037502
5.65,-48.0965856523628
5.656,-48.056456989626
5.662,-48.0160381596298
5.668,-47.9753417685659
5.674,-47.9343801814317
5.68,-47.8931655192735
5.686,-47.8517096569455
5.692,-47.8100242213574
5.698,-47.7681205901888
5.704,-47.7260098910429
5.71,-47.6837030010172
5.716,-47.6412105466663
5.722,-47.5985429043333
5.728,-47.5557102008269
5.734,-47.5127223144223
5.74,-47.4695888761629
5.746,-47.426319271442
5.752,-47.3829226418445
5.758,-47.3394078872275
5.764,-47.2957836680224
5.77,-47.2520584077379
5.776,-47.2082402956477
5.782,-47.1643372896461
5.788,-47.1203571192536
5.794,-47.0763072887593
5.8,-47.0321950804835
5.806,-46.9880275581479
5.812,-46.9438115703388
5.818,-46.8995537540522
5.824,-46.8552605383077
5.83,-46.810938147821
5.836,-46.7665926067236
5.842,-46.7222297423205
5.848,-46.6778551888764
5.854,-46.6334743914217
5.86,-46.58909260957
5.866,-46.5447149213407
5.872,-46.5003462269773
5.878,-46.4559912527581
5.884,-46.4116545547907
5.89,-46.3673405227858
5.896,-46.3230533838053
5.902,-46.2787972059801
5.908,-46.2345759021925
5.914,-46.1903932337205
5.92,-46.1462528138396
5.926,-46.1021581113791
5.932,-46.0581124542306
5.938,-46.0141190328055
5.944,-45.9701809034385
5.95,-45.9263009917381
5.956,-45.8824820958776
5.962,-45.8387268898298
5.968,-45.795037926541
5.974,-45.7514176410443
5.98,-45.707868353511
5.986,-45.6643922722403
5.992,-45.6209914965845
5.998,-45.5776680198123
6.004,-45.5344237319067
6.01,-45.4912604223006
6.016,-45.4481797825468
6.022,-45.4051834089249
6.028,-45.3622728049846
6.034,-45.3194493840247
6.04,-45.2767144715093
6.046,-45.2340693074213
6.052,-45.1915150485533
