"Freq [GHz]","dB(St(1,7)) []"
1,-9.70739386946083
1.006,-11.4222727051359
1.012,-13.1750590699265
1.018,-14.6481614357746
1.024,-15.5225936267439
1.03,-15.6023544272329
1.036,-15.0600989706994
1.042,-14.2401202939269
1.048,-13.3878485783614
1.054,-12.6153272497767
1.06,-11.9613909827359
1.066,-11.4560272034191
1.072,-10.7254543133792
1.078,-10.5316626466356
1.084,-10.2803182782305
1.09,-10.0888673107068
1.096,-9.95706181024713
1.102,-9.87970842073852
1.108,-9.85153024559905
1.114,-9.86785793567838
1.12,-9.92470935594591
1.126,-10.0187893359744
1.132,-10.147769591721
1.138,-10.3157668311654
1.144,-10.4793575681765
1.15,-10.7005647761996
1.156,-10.9414465484743
1.162,-11.2045206307614
1.168,-11.4884288115804
1.174,-11.7913487611996
1.18,-12.111220302243
1.186,-12.4457318524324
1.192,-12.7922609274706
1.198,-13.147802373732
1.204,-13.5088965146018
1.21,-13.8715674275082
1.216,-14.2312842133255
1.222,-14.5829621332526
1.228,-14.921024180591
1.234,-15.2395452394146
1.24,-15.5324988095315
1.246,-15.7941208487607
1.252,-16.0194053934441
1.258,-16.2047908663079
1.264,-16.349361791025
1.27,-16.4585523266903
1.276,-16.5712421443175
1.282,-16.2599488675219
1.288,-16.4917073452587
1.294,-16.439337876518
1.3,-16.3524077983771
1.306,-16.2424833532853
1.312,-16.115068891326
1.318,-15.9742625501042
1.324,-15.8234126432396
1.33,-15.6652053738884
1.336,-15.5014615197246
1.342,-15.3318715100494
1.348,-15.1392618070238
1.354,-15.0906375562901
1.36,-14.8839221038826
1.366,-14.7203881708618
1.372,-14.5672374496778
1.378,-14.4239032645291
1.384,-14.2945053559018
1.39,-14.1867151661035
1.396,-14.0954263319705
1.402,-13.9655581419232
1.408,-12.6395376067592
1.414,-12.8986701972629
1.42,-12.8675607505132
1.426,-12.8401534273196
1.432,-12.8158352399783
1.438,-12.7940538162404
1.444,-12.7747969407598
1.45,-12.7579972668983
1.456,-12.7436358671407
1.462,-12.7310683978932
1.468,-12.7207918654816
1.474,-12.7125282177719
1.48,-12.705859474704
1.486,-12.7010356842961
1.492,-12.6978065989962
1.498,-12.6961233004747
1.504,-12.6958418682904
1.51,-12.6968822696776
1.516,-12.6991422000017
1.522,-12.7024727601888
1.528,-12.7089870451871
1.534,-12.7128338837747
1.54,-12.7191204290089
1.546,-12.7262704686075
1.552,-12.7341687579459
1.558,-12.7427337886565
1.564,-12.7519201776138
1.57,-12.7617359677565
1.576,-12.7720519165288
1.582,-12.7828087681481
1.588,-12.7939500132714
1.594,-12.8054217382298
1.6,-12.8171724837181
1.606,-12.8291531124355
1.612,-12.8413166851642
1.618,-12.8536183447753
1.624,-12.8660152076442
1.63,-12.8784662619603
1.636,-12.890932272398
1.642,-12.9033756905773
1.648,-12.9157605706528
1.654,-12.9280524891513
1.66,-12.9402184676727
1.666,-12.9522268957913
1.672,-12.964047447978
1.678,-12.975650977249
1.684,-12.9870093257363
1.69,-12.9980947749823
1.696,-13.0088769942263
1.702,-13.0192240914557
1.708,-13.0295342019635
1.714,-13.0392758853994
1.72,-13.0486424843979
1.726,-13.0576026654789
1.732,-13.0661346710072
1.738,-13.0742186454313
1.744,-13.0818355404919
1.75,-13.088966468948
1.756,-13.0955913655978
1.762,-13.1016837905545
1.768,-13.1071718169913
1.774,-13.1144500552409
1.78,-13.1170871037466
1.786,-13.1209225454389
1.792,-13.1242224887703
1.798,-13.1269298728771
1.804,-13.1289847948637
1.81,-13.1310228740053
1.816,-13.1315756507211
1.822,-13.1317851740253
1.828,-13.1313680969322
1.834,-13.1302989972834
1.84,-13.128555354225
1.846,-13.1261399335673
1.852,-13.1230184779563
1.858,-13.1192058797775
1.864,-13.1146844996889
1.87,-13.1094483604156
1.876,-13.1034924477079
1.882,-13.0968122880796
1.888,-13.089404326969
1.894,-13.0812672663185
1.9,-13.0724069119061
1.906,-13.0628627724194
1.912,-13.0532087677878
1.918,-13.0405269415927
1.924,-13.0289025865812
1.93,-13.0162783981164
1.936,-13.0028379974615
1.942,-12.9886037593413
1.948,-12.9735796521501
1.954,-12.957765733225
1.96,-12.941161773542
1.966,-12.923769448158
1.972,-12.9055966430937
1.978,-12.886680532237
1.984,-12.8691759331815
1.99,-12.8460905989567
1.996,-12.8249408761246
2.002,-12.8031481942889
2.008,-12.7812172412206
2.014,-12.7633430654384
2.02,-12.7237152917768
2.026,-12.7017397425582
2.032,-12.6765356232678
2.038,-12.6500917627056
2.044,-12.6228087918379
2.05,-12.59485776014
2.056,-12.5663695896692
2.062,-12.5374780376406
2.068,-12.508329679029
2.074,-12.4790745437184
2.08,-12.4498319393728
2.086,-12.4206225822999
2.092,-12.3912719535279
2.098,-12.3613301075274
2.104,-12.3301002469348
2.11,-12.2968434171991
2.116,-12.261077019102
2.122,-12.2227532268035
2.128,-12.1852341262045
2.134,-12.1500136356341
2.14,-12.1145250079766
2.146,-12.0788317209939
2.152,-12.0429995940021
2.158,-12.0070967691352
2.164,-11.9711936800959
2.17,-11.9353630071276
2.176,-11.899679616912
2.182,-11.8642204860924
2.188,-11.8290646071213
2.194,-11.7942928751563
2.2,-11.7599879547629
2.206,-11.726234125246
2.212,-11.6931171035018
2.218,-11.6607238433791
2.224,-11.6291423106448
2.23,-11.598461232763
2.236,-11.5687698228115
2.242,-11.5401574769636
2.248,-11.5127134450265
2.254,-11.4865264735396
2.26,-11.4616844208346
2.266,-11.4382738432071
2.272,-11.4163795508376
2.278,-11.3960841312127
2.284,-11.3774674363327
2.29,-11.3606060276359
2.296,-11.3455725688507
2.302,-11.3324351511026
2.308,-11.321256525258
2.314,-11.3120932014359
2.32,-11.3049943509222
2.326,-11.3000004042151
2.332,-11.2971411670883
2.338,-11.2964331478608
2.344,-11.2978755490282
2.35,-11.3014439072953
2.356,-11.3070793976979
2.362,-11.3146696855607
2.368,-11.3240121412119
2.374,-11.3347370079283
2.38,-11.3461294789364
2.386,-11.3566604390097
2.392,-11.3625435822462
2.398,-11.3533793974132
2.404,-11.3853394890628
2.41,-11.5905952701245
2.416,-11.5892099698996
2.422,-11.6038699995623
2.428,-11.6293177278275
2.434,-11.6608718351613
2.44,-11.6965871852979
2.446,-11.7355353204726
2.452,-11.7772030767101
2.458,-11.8212678518969
2.464,-11.8675030029142
2.47,-11.9157338073685
2.476,-11.9658152680291
2.482,-12.017620213501
2.488,-12.0710326110982
2.494,-12.1259436769685
2.5,-12.1822495609946
2.506,-12.2398499533503
2.512,-12.2986472472924
2.518,-12.3585460454458
2.524,-12.419452881402
2.53,-12.4812760771011
2.536,-12.5439256854133
2.542,-12.6073134850933
2.548,-12.671353006482
2.554,-12.7359595735699
2.56,-12.8010503528304
2.566,-12.8665444024618
2.572,-12.9323627179064
2.578,-12.9984282710616
2.584,-13.0646660416996
2.59,-13.1310030403945
2.596,-13.1973683228207
2.602,-13.2636929956894
2.608,-13.3299102148872
2.614,-13.3959551765862
2.62,-13.4617651022442
2.626,-13.5272792185155
2.632,-13.5924387331567
2.638,-13.6571868080526
2.644,-13.7214685305021
2.65,-13.7852308839015
2.656,-13.8484227189439
2.662,-13.9109947264155
2.668,-13.9728994126159
2.674,-14.0340910783585
2.68,-14.0945258024075
2.686,-14.154161430091
2.692,-14.2129575676768
2.698,-14.2708755829148
2.704,-14.327878611928
2.71,-14.3839315723709
2.716,-14.4390011824686
2.722,-14.4930559852019
2.728,-14.5460663765114
2.734,-14.5980046359715
2.74,-14.6488449579334
2.746,-14.6985634806832
2.752,-14.7471383107102
2.758,-14.7945495387834
2.764,-14.840779244197
2.77,-14.8858114833272
2.776,-14.9296322585701
2.782,-14.9722294638429
2.788,-15.0135928031717
2.794,-15.0537136794721
2.8,-15.0925850514705
2.806,-15.1302012578149
2.812,-15.1665578087418
2.818,-15.2016511471586
2.824,-15.2354783825934
2.83,-15.2680370030518
2.836,-15.2993245713045
2.842,-15.3293384133858
2.848,-15.3580753080125
2.854,-15.385531186134
2.86,-15.4117008498467
2.866,-15.4365777194189
2.872,-15.4601536161908
2.878,-15.4824185877099
2.884,-15.5033607797123
2.89,-15.5229663576109
2.896,-15.5412194781189
2.902,-15.5581023096764
2.908,-15.5735950985801
2.914,-15.5876762762378
2.92,-15.6003226018645
2.926,-15.611509334231
2.932,-15.621210425774
2.938,-15.6293987324571
2.944,-15.6360462331726
2.95,-15.6411242531391
2.956,-15.6446036865971
2.962,-15.6464552150691
2.968,-15.6466495184519
2.974,-15.6451574772055
2.98,-15.641950364835
2.986,-15.6370000307087
2.992,-15.6302790739868
2.998,-15.6217610100584
3.004,-15.6114204313808
3.01,-15.5992331650089
3.016,-15.5851764293983
3.022,-15.5692289932775
3.028,-15.5513713395321
3.034,-15.5315858371404
3.04,-15.5098569242599
3.046,-15.4861713056002
3.052,-15.4605181672407
3.058,-15.4328894120697
3.064,-15.4032799190362
3.07,-15.3716878294264
3.076,-15.3381148633981
3.082,-15.3025666700295
3.088,-15.2650532141563
3.094,-15.2255892032803
3.1,-15.1841945578185
3.106,-15.1408949279159
3.112,-15.0957222599484
3.118,-15.0487154156786
3.124,-14.9999208467668
3.13,-14.9493933269641
3.136,-14.8971967437811
3.142,-14.8434049506993
3.148,-14.788102680036
3.154,-14.7313865153244
3.16,-14.6733659204869
3.166,-14.6141643210943
3.172,-14.5539202305591
3.178,-14.4927884111434
3.184,-14.4309410561197
3.19,-14.3685689752509
3.196,-14.30588276093
3.202,-14.2431139068464
3.208,-14.1805158449442
3.214,-14.1183648598317
3.22,-14.0569608328346
3.226,-13.9966277608337
3.232,-13.9377139882594
3.238,-13.8805920846181
3.244,-13.8256582953373
3.25,-13.7733314912875
3.256,-13.7222617205305
3.262,-13.6741863536136
3.268,-13.6295356139185
3.274,-13.588759768537
3.28,-13.5523263467549
3.286,-13.5207165834263
3.292,-13.4944210507222
3.298,-13.4739344689025
3.304,-13.4597497210209
3.31,-13.45235113708
3.316,-13.4522071585246
3.322,-13.4597625415996
3.328,-13.4754303046384
3.334,-13.4995836657465
3.34,-13.5325482492084
3.346,-13.5745948570436
3.352,-13.6259331029405
3.358,-13.6867061870991
3.364,-13.7569870518879
3.37,-13.8367761013203
3.376,-13.9260005958957
3.382,-14.0245157537862
3.388,-14.1321075062605
3.394,-14.2484967765241
3.4,-14.37334508316
3.406,-14.5062612171258
3.412,-14.6468087079655
3.418,-14.7945137816099
3.424,-14.9488735179288
3.43,-15.1093639384276
3.436,-15.2754477893934
3.442,-15.4465818290386
3.448,-15.6222234744356
3.454,-15.8018367113895
3.46,-15.9848972147114
3.466,-16.1708966653822
3.472,-16.359346283486
3.478,-16.5497796209952
3.484,-16.7417546766161
3.49,-16.9348554065315
3.496,-17.1286927108785
3.502,-17.3229049771913
3.508,-17.5171582598594
3.514,-17.711146169873
3.52,-17.9045895426074
3.526,-18.097235943853
3.532,-18.2888590662871
3.538,-18.4792580605393
3.544,-18.6682568372154
3.55,-18.8557033689153
3.556,-19.0414690145148
3.562,-19.2254478818309
3.568,-19.4075562392542
3.574,-19.587731981984
3.58,-19.7659341540953
3.586,-19.9421425237558
3.592,-20.1163572054323
3.598,-20.2885983198483
3.604,-20.4589056797289
3.61,-20.6273384869906
3.616,-20.7939750249799
3.622,-20.9589123276604
3.628,-21.1222658063163
3.634,-21.2841688134232
3.64,-21.4447721228938
3.646,-21.6042433060109
3.652,-21.7627659830773
3.658,-21.920538932233
3.664,-22.0777750390702
3.67,-22.2347000736914
3.676,-22.3915512857168
3.682,-22.548575812477
3.688,-22.706028901164
3.694,-22.8641719519687
3.7,-23.023270396056
3.706,-23.1835914293893
3.712,-23.3454016306495
3.718,-23.5089644984591
3.724,-23.6745379494546
3.73,-23.842371824056
3.736,-24.0127054506869
3.742,-24.185765321352
3.748,-24.3617629316112
3.754,-24.54089283593
3.76,-24.723330965082
3.766,-24.9092332458238
3.772,-25.0987345546958
3.778,-25.2919480278846
3.784,-25.4889647381121
3.79,-25.6898537380324
3.796,-25.8946624582415
3.802,-26.1034174372965
3.808,-26.316125351654
3.814,-26.532774305589
3.82,-26.753335335273
3.826,-26.9777640774405
3.832,-27.2060025514875
3.838,-27.4379810043339
3.844,-27.6736197697185
3.85,-27.9128310974967
3.856,-28.1555209136178
3.862,-28.4015904774044
3.868,-28.650937909167
3.874,-28.9034595677271
3.88,-29.1590512637988
3.886,-29.4176093011453
3.892,-29.6790313428192
3.898,-29.9432171044805
3.904,-30.2100688807102
3.91,-30.4794919133786
3.916,-30.7513946135083
3.922,-31.02568864974
3.928,-31.3022889175421
3.934,-31.5811134037676
3.94,-31.8620829611642
3.946,-32.1451210070473
3.952,-32.4301531596515
3.958,-32.717106824751
3.964,-33.0059107440515
3.97,-33.296494515668
3.976,-33.5887880957583
3.982,-33.882721289126
3.988,-34.1782232353785
3.994,-34.4752218960345
4,-34.7736435468695
4.006,-35.0734122787574
4.012,-35.3744495093425
4.018,-35.6766735070621
4.024,-35.979998928341
4.03,-36.2843363682065
4.036,-36.5895919241259
4.042,-36.8956667725553
4.048,-37.2024567575061
4.054,-37.5098519903941
4.06,-37.8177364605284
4.066,-38.125987655832
4.072,-38.4344761937608
4.078,-38.7430654629027
4.084,-39.0516112763916
4.09,-39.3599615390665
4.096,-39.6679559312297
4.102,-39.9754256129086
4.108,-40.2821929536948
4.114,-40.5880712944994
4.12,-40.8928647489069
4.126,-41.1963680532063
4.132,-41.4983664755834
4.138,-41.7986357963295
4.144,-42.0969423722018
4.15,-42.3930432991865
4.156,-42.6866866887876
4.162,-42.9776120735025
4.168,-43.2655509572396
4.174,-43.5502275259883
4.18,-43.8313595329429
4.186,-44.1086593704207
4.192,-44.3818353381985
4.198,-44.65059311426
4.204,-44.9146374293733
4.21,-45.1736739414083
4.216,-45.4274112989473
4.222,-45.6755633766742
4.228,-45.9178516574751
4.234,-46.1540077284355
4.24,-46.3837758503446
4.246,-46.6069155533392
4.252,-46.8232042053825
4.258,-47.0324394958445
4.264,-47.2344417739452
4.27,-47.4290561815908
4.276,-47.6161545224182
4.282,-47.7956368137493
4.288,-47.9674324755814
4.294,-48.1315011204365
4.3,-48.2878329194583
4.306,-48.4364485330075
4.312,-48.577398607503
4.318,-48.7107628536702
4.324,-48.836648733985
4.33,-48.9551897982869
4.336,-49.0665437157536
4.342,-49.1708900582922
4.348,-49.268427894701
4.354,-49.359373256656
4.36,-49.4439565367999
4.366,-49.5224198762281
4.372,-49.5950145938493
4.378,-49.6619987038638
4.384,-49.7236345604343
4.39,-49.7801866609431
4.396,-49.8319196314645
4.402,-49.8790964105697
4.408,-49.9219766406109
4.414,-49.9608152693894
4.42,-49.9958613597476
4.426,-50.0273571001778
4.432,-50.0555370060311
4.438,-50.0806272982914
4.444,-50.1028454450798
4.45,-50.1223998499832
4.456,-50.1394896708494
4.462,-50.1543047527507
4.468,-50.167025659284
4.474,-50.1778237871517
4.48,-50.1868615499593
4.486,-50.1942926183051
4.492,-50.2002622044525
4.498,-50.2049073811216
4.504,-50.2083574251664
4.51,-50.2107341780945
4.516,-50.2121524165039
4.522,-50.2127202265588
4.528,-50.2125393775742
4.534,-50.2117056906433
4.54,-50.2103093990077
4.546,-50.2084354975468
4.552,-50.2061640793582
4.558,-50.2035706579071
4.564,-50.2007264736668
4.57,-50.1976987845393
4.576,-50.194551139661
4.582,-50.1913436364547
4.588,-50.1881331610047
4.594,-50.1849736120021
4.6,-50.1819161086469
4.606,-50.1790091829995
4.612,-50.1762989573574
4.618,-50.1738293072943
4.624,-50.1716420110396
4.63,-50.1697768859059
4.636,-50.1682719124872
4.642,-50.1671633473561
4.648,-50.166485824984
4.654,-50.1662724496031
4.66,-50.1665548777095
4.666,-50.1673633918935
4.672,-50.168726966659
4.678,-50.1706733268698
4.684,-50.1732289994403
4.69,-50.1764193588549
4.696,-50.1802686670804
4.702,-50.1848001084038
4.708,-50.1900358197039
4.714,-50.1959969166351
4.72,-50.2027035161791
4.726,-50.2101747559888
4.732,-50.2184288109279
4.738,-50.22748290718
4.744,-50.2373533342798
4.75,-50.2480554553924
4.756,-50.259603716144
4.762,-50.2720116522852
4.768,-50.2852918964444
4.774,-50.2994561842087
4.78,-50.3145153597475
4.786,-50.3304793811745
4.792,-50.3473573258247
4.798,-50.3651573956024
4.804,-50.3838869225394
4.81,-50.4035523746862
4.816,-50.424159362438
4.822,-50.4457126453863
4.828,-50.4682161397692
4.834,-50.4916729265772
4.84,-50.5160852603616
4.846,-50.5414545787754
4.852,-50.5677815128687
4.858,-50.5950658981443
4.864,-50.6233067863732
4.87,-50.6525024581568
4.876,-50.6826504362164
4.882,-50.7137474993788
4.888,-50.7457896972235
4.894,-50.7787723653494
4.9,-50.8126901412101
4.906,-50.8475369804675
4.912,-50.8833061738052
4.918,-50.9199903641417
4.924,-50.9575815641792
4.93,-50.9960711742258
4.936,-51.0354500002217
4.942,-51.0757082719054
4.948,-51.1168356610516
4.954,-51.1588212997149
4.96,-51.2016537984156
4.966,-51.2453212642016
4.972,-51.2898113185276
4.978,-51.33511111489
4.984,-51.3812073561626
4.99,-51.4280863115799
4.996,-51.4757338333158
5.002,-51.5241353726135
5.008,-51.5732759954221
5.014,-51.6231403975012
5.02,-51.6737129189595
5.026,-51.7249775581938
5.032,-51.7769179852042
5.038,-51.8295175542619
5.044,-51.882759315909
5.05,-51.9366260282793
5.056,-51.9911001677274
5.062,-52.0461639387601
5.068,-52.1017992832683
5.074,-52.157987889061
5.08,-52.2147111977064
5.086,-52.2719504116891
5.092,-52.3296865008974
5.098,-52.3879002084552
5.104,-52.4465720559191
5.11,-52.5056823478635
5.116,-52.5652111758796
5.122,-52.6251384220172
5.128,-52.6854437617018
5.134,-52.7461066661609
5.14,-52.807106404397
5.146,-52.8684220447486
5.152,-52.9300324560799
5.158,-52.991916308644
5.164,-53.0540520746684
5.17,-53.1164180287099
5.176,-53.1789922478301
5.182,-53.2417526116461
5.188,-53.3046768023094
5.194,-53.3677423044694
5.2,-53.4309264052812
5.206,-53.4942061945144
5.212,-53.557558564826
5.218,-53.6209602122566
5.224,-53.6843876370155
5.23,-53.7478171446149
5.236,-53.8112248474192
5.242,-53.8745866666753
5.248,-53.9378783350836
5.254,-54.001075399981
5.26,-54.0641532271944
5.266,-54.1270870056323
5.272,-54.1898517526759
5.278,-54.2524223204317
5.284,-54.3147734029063
5.29,-54.3768795441617
5.296,-54.4387151475062
5.302,-54.5002544857776
5.308,-54.5614717127648
5.314,-54.6223408758182
5.32,-54.6828359296903
5.326,-54.7429307516457
5.332,-54.8025991578723
5.338,-54.8618149212243
5.344,-54.9205517903165
5.35,-54.9787835099869
5.356,-55.0364838431354
5.362,-55.0936265939403
5.368,-55.1501856324438
5.374,-55.2061349204935
5.38,-55.2614485390136
5.386,-55.3161007165736
5.392,-55.3700658592099
5.398,-55.4233185814494
5.404,-55.4758337384692
5.41,-55.5275864593226
5.416,-55.5785521811443
5.422,-55.6287066842436
5.428,-55.6780261279802
5.434,-55.7264870873088
5.44,-55.7740665898697
5.446,-55.8207421534907
5.452,-55.866491823961
5.458,-55.9112942129259
5.464,-55.9551285357453
5.47,-55.9979746491538
5.476,-56.0398130885527
5.482,-56.0806251047608
5.488,-56.120392700047
5.494,-56.1590986632671
5.5,-56.1967266039262
5.506,-56.2344426841935
5.512,-56.2721619669761
5.518,-56.3098813408795
5.524,-56.3475975923842
5.53,-56.3853074032424
5.536,-56.4230073478249
5.542,-56.4606938904173
5.548,-56.4983633824667
5.554,-56.5360120597791
5.56,-56.5736360396662
5.566,-56.6112313180443
5.572,-56.648793766483
5.578,-56.6863191292063
5.584,-56.7238030200457
5.59,-56.7612409193464
5.596,-56.7986281708269
5.602,-56.8359599783933
5.608,-56.8732314029099
5.614,-56.9104373589261
5.62,-56.9475726113619
5.626,-56.9846317721533
5.632,-57.0216092968597
5.638,-57.0584994812332
5.644,-57.0952964577555
5.65,-57.1319941921404
5.656,-57.1685864798079
5.662,-57.2050669423301
5.668,-57.241429023853
5.674,-57.2776659874967
5.68,-57.3137709117379
5.686,-57.3497366867772
5.692,-57.3855560108965
5.698,-57.4212213868085
5.704,-57.4567251180051
5.71,-57.4920593051071
5.716,-57.5272158422213
5.722,-57.5621864133098
5.728,-57.5969624885773
5.734,-57.6315353208817
5.74,-57.6658959421747
5.746,-57.7000351599781
5.752,-57.7339435539038
5.758,-57.7676114722234
5.764,-57.8010290284952
5.77,-57.8341860982578
5.776,-57.8670723157958
5.782,-57.8996770709895
5.788,-57.9319895062542
5.794,-57.9639985135814
5.8,-57.9956927316896
5.806,-58.0270605432957
5.812,-58.0580900725172
5.818,-58.088769182416
5.824,-58.1190854726954
5.83,-58.1490262775609
5.836,-58.1785786637587
5.842,-58.2077294288014
5.848,-58.2364650993962
5.854,-58.2647719300869
5.86,-58.2926359021241
5.866,-58.3200427225765
5.872,-58.3469778236969
5.878,-58.373426362559
5.884,-58.3993732209768
5.89,-58.4248030057239
5.896,-58.4497000490655
5.902,-58.4740484096199
5.908,-58.4978318735637
5.914,-58.5210339561969
5.92,-58.5436379038828
5.926,-58.5656266963793
5.932,-58.5869830495759
5.938,-58.6076894186534
5.944,-58.627728001682
5.95,-58.6470807436713
5.956,-58.6657293410912
5.962,-58.6836552468758
5.968,-58.7008396759271
5.974,-58.7172636111333
5.98,-58.7329078099158
5.986,-58.7477528113194
5.992,-58.7617789436595
5.998,-58.7749663327399
6.004,-58.7872949106538
6.01,-58.7987444251805
6.016,-58.8092944497891
6.022,-58.8189243942611
6.028,-58.8276135159412
6.034,-58.8353409316263
6.04,-58.8420856301014
6.046,-58.8478264853298
6.052,-58.8525422703037
6.058,-58.8562116715625
