"Freq [GHz]","dB(St(7,1)) []"
1,-9.70739386945846
1.006,-11.4222727051348
1.012,-13.1750590699229
1.018,-14.6481614357709
1.024,-15.5225936267381
1.03,-15.6023544272267
1.036,-15.0600989706985
1.042,-14.2401202939367
1.048,-13.3878485783822
1.054,-12.6153272498087
1.06,-11.9613909827809
1.066,-11.4560272035019
1.072,-10.7254543132536
1.078,-10.5316626466247
1.084,-10.2803182782306
1.09,-10.0888673107106
1.096,-9.9570618102501
1.102,-9.87970842074097
1.108,-9.85153024560038
1.114,-9.86785793567891
1.12,-9.92470935594732
1.126,-10.0187893359783
1.132,-10.1477695917317
1.138,-10.3157668312148
1.144,-10.4793575681291
1.15,-10.7005647761806
1.156,-10.9414465484641
1.162,-11.2045206307557
1.168,-11.4884288115781
1.174,-11.7913487611998
1.18,-12.111220302245
1.186,-12.4457318524357
1.192,-12.7922609274746
1.198,-13.1478023737361
1.204,-13.5088965146058
1.21,-13.8715674275118
1.216,-14.2312842133284
1.222,-14.5829621332546
1.228,-14.9210241805923
1.234,-15.2395452394155
1.24,-15.5324988095323
1.246,-15.794120848762
1.252,-16.0194053934459
1.258,-16.2047908663096
1.264,-16.3493617910226
1.27,-16.458552326668
1.276,-16.571242144191
1.282,-16.2599488677286
1.288,-16.4917073452636
1.294,-16.439337876521
1.3,-16.3524077983827
1.306,-16.2424833532931
1.312,-16.1150688913346
1.318,-15.9742625501127
1.324,-15.8234126432466
1.33,-15.6652053738929
1.336,-15.501461519725
1.342,-15.3318715100429
1.348,-15.1392618069968
1.354,-15.0906375563421
1.36,-14.8839221038936
1.366,-14.7203881708662
1.372,-14.5672374496816
1.378,-14.4239032645361
1.384,-14.2945053559083
1.39,-14.1867151660851
1.396,-14.0954263319612
1.402,-13.9655581421353
1.408,-12.6395376040737
1.414,-12.8986701972719
1.42,-12.8675607505172
1.426,-12.8401534274304
1.432,-12.8158352399727
1.438,-12.7940538162431
1.444,-12.7747969407641
1.45,-12.7579972668957
1.456,-12.7436358670268
1.462,-12.7310683979118
1.468,-12.7207918654646
1.474,-12.7125282175227
1.48,-12.7058594747167
1.486,-12.7010356842943
1.492,-12.6978065990558
1.498,-12.6961233004731
1.504,-12.6958418682935
1.51,-12.696882269675
1.516,-12.6991421999621
1.522,-12.7024727599788
1.528,-12.7089870483276
1.534,-12.7128338842048
1.54,-12.7191204292866
1.546,-12.7262704688063
1.552,-12.7341687580757
1.558,-12.7427337887148
1.564,-12.7519201776149
1.57,-12.7617359677564
1.576,-12.7720519165283
1.582,-12.7828087681476
1.588,-12.7939500132711
1.594,-12.8054217382299
1.6,-12.8171724837186
1.606,-12.8291531124363
1.612,-12.8413166851652
1.618,-12.8536183447762
1.624,-12.8660152076449
1.63,-12.8784662619607
1.636,-12.8909322723978
1.642,-12.9033756905765
1.648,-12.9157605706513
1.654,-12.9280524891491
1.66,-12.9402184676699
1.666,-12.9522268957881
1.672,-12.9640474479747
1.678,-12.9756509772462
1.684,-12.9870093257349
1.69,-12.9980947749844
1.696,-13.0088769942384
1.702,-13.0192240915834
1.708,-13.0295342019237
1.714,-13.0392758853784
1.72,-13.0486424843839
1.726,-13.0576026654698
1.732,-13.0661346710026
1.738,-13.0742186454316
1.744,-13.0818355404978
1.75,-13.0889664689608
1.756,-13.09559136562
1.762,-13.1016837905923
1.768,-13.1071718170708
1.774,-13.1144500545194
1.78,-13.1170871037018
1.786,-13.1209225454272
1.792,-13.1242224887735
1.798,-13.126929872892
1.804,-13.1289847948987
1.81,-13.1310228739259
1.816,-13.1315756507163
1.822,-13.1317851740281
1.828,-13.1313680969364
1.834,-13.1302989972868
1.84,-13.1285553542303
1.846,-13.1261399335627
1.852,-13.1230184779578
1.858,-13.1192058797796
1.864,-13.114684499691
1.87,-13.1094483604173
1.876,-13.103492447709
1.882,-13.0968122880801
1.888,-13.089404326969
1.894,-13.0812672663184
1.9,-13.0724069119063
1.906,-13.0628627724216
1.912,-13.0532087678053
1.918,-13.0405269415764
1.924,-13.0289025865729
1.93,-13.0162783981105
1.936,-13.0028379974573
1.942,-12.9886037593386
1.948,-12.973579652149
1.954,-12.9577657332253
1.96,-12.9411617735437
1.966,-12.9237694481605
1.972,-12.905596643096
1.978,-12.8866805322354
1.984,-12.8691759330235
1.99,-12.8460905989751
1.996,-12.8249408761339
2.002,-12.8031481942885
2.008,-12.7812172411975
2.014,-12.7633430652458
2.02,-12.7237152917694
2.026,-12.7017397425673
2.032,-12.6765356232694
2.038,-12.6500917626993
2.044,-12.6228087918271
2.05,-12.5948577601313
2.056,-12.5663695896745
2.062,-12.537478037679
2.068,-12.5083296791275
2.074,-12.4790745439107
2.08,-12.4498319396908
2.086,-12.4206225827567
2.092,-12.3912719540929
2.098,-12.3613301081114
2.104,-12.3301002474126
2.11,-12.296843417476
2.116,-12.2610770191799
2.122,-12.2227532267901
2.128,-12.1852341262057
2.134,-12.1500136356358
2.14,-12.1145250079788
2.146,-12.0788317209964
2.152,-12.042999594005
2.158,-12.0070967691383
2.164,-11.9711936800992
2.17,-11.935363007131
2.176,-11.8996796169155
2.182,-11.864220486096
2.188,-11.829064607125
2.194,-11.7942928751599
2.2,-11.7599879547665
2.206,-11.7262341252495
2.212,-11.6931171035052
2.218,-11.6607238433823
2.224,-11.629142310648
2.23,-11.598461232766
2.236,-11.5687698228145
2.242,-11.5401574769664
2.248,-11.5127134450293
2.254,-11.4865264735423
2.26,-11.4616844208372
2.266,-11.4382738432098
2.272,-11.4163795508403
2.278,-11.3960841312155
2.284,-11.3774674363355
2.29,-11.3606060276389
2.296,-11.3455725688539
2.302,-11.3324351511061
2.308,-11.3212565252619
2.314,-11.3120932014402
2.32,-11.3049943509271
2.326,-11.3000004042208
2.332,-11.2971411670948
2.338,-11.2964331478683
2.344,-11.297875549037
2.35,-11.3014439073056
2.356,-11.3070793977101
2.362,-11.3146696855755
2.368,-11.3240121412301
2.374,-11.3347370079512
2.38,-11.3461294789665
2.386,-11.3566604390519
2.392,-11.3625435823121
2.398,-11.353379397532
2.404,-11.38533948907
2.41,-11.5905952701781
2.416,-11.5892099698988
2.422,-11.6038699995526
2.428,-11.6293177278175
2.434,-11.6608718351527
2.44,-11.6965871852909
2.446,-11.7355353204672
2.452,-11.7772030767062
2.458,-11.8212678518942
2.464,-11.8675030029128
2.47,-11.9157338073681
2.476,-11.9658152680297
2.482,-12.0176202135025
2.488,-12.0710326111005
2.494,-12.1259436769716
2.5,-12.1822495609984
2.506,-12.2398499533547
2.512,-12.2986472472974
2.518,-12.3585460454513
2.524,-12.419452881408
2.53,-12.4812760771076
2.536,-12.5439256854201
2.542,-12.6073134851005
2.548,-12.6713530064895
2.554,-12.7359595735777
2.56,-12.8010503528384
2.566,-12.86654440247
2.572,-12.9323627179147
2.578,-12.99842827107
2.584,-13.064666041708
2.59,-13.131003040403
2.596,-13.1973683228291
2.602,-13.2636929956977
2.608,-13.3299102148954
2.614,-13.3959551765942
2.62,-13.461765102252
2.626,-13.5272792185231
2.632,-13.592438733164
2.638,-13.6571868080595
2.644,-13.7214685305086
2.65,-13.7852308839076
2.656,-13.8484227189496
2.662,-13.9109947264206
2.668,-13.9728994126204
2.674,-14.0340910783624
2.68,-14.0945258024107
2.686,-14.1541614300935
2.692,-14.2129575676786
2.698,-14.2708755829158
2.704,-14.3278786119282
2.71,-14.3839315723702
2.716,-14.439001182467
2.722,-14.4930559851994
2.728,-14.5460663765081
2.734,-14.5980046359671
2.74,-14.6488449579281
2.746,-14.6985634806769
2.752,-14.747138310703
2.758,-14.7945495387753
2.764,-14.8407792441879
2.77,-14.8858114833173
2.776,-14.9296322585594
2.782,-14.9722294638313
2.788,-15.0135928031595
2.794,-15.0537136794593
2.8,-15.0925850514571
2.806,-15.130201257801
2.812,-15.1665578087275
2.818,-15.2016511471441
2.824,-15.2354783825787
2.83,-15.2680370030371
2.836,-15.2993245712898
2.842,-15.3293384133713
2.848,-15.3580753079983
2.854,-15.3855311861201
2.86,-15.4117008498333
2.866,-15.4365777194059
2.872,-15.4601536161784
2.878,-15.4824185876981
2.884,-15.5033607797012
2.89,-15.5229663576005
2.896,-15.5412194781092
2.902,-15.5581023096675
2.908,-15.5735950985719
2.914,-15.5876762762303
2.92,-15.6003226018577
2.926,-15.6115093342249
2.932,-15.6212104257685
2.938,-15.6293987324522
2.944,-15.6360462331684
2.95,-15.6411242531353
2.956,-15.6446036865939
2.962,-15.6464552150664
2.968,-15.6466495184497
2.974,-15.6451574772037
2.98,-15.6419503648337
2.986,-15.6370000307078
2.992,-15.6302790739863
2.998,-15.6217610100584
3.004,-15.6114204313812
3.01,-15.5992331650096
3.016,-15.5851764293994
3.022,-15.569228993279
3.028,-15.5513713395341
3.034,-15.5315858371429
3.04,-15.5098569242629
3.046,-15.4861713056036
3.052,-15.4605181672446
3.058,-15.4328894120742
3.064,-15.4032799190412
3.07,-15.371687829432
3.076,-15.3381148634042
3.082,-15.3025666700362
3.088,-15.2650532141636
3.094,-15.2255892032882
3.1,-15.1841945578269
3.106,-15.1408949279248
3.112,-15.0957222599579
3.118,-15.0487154156887
3.124,-14.9999208467773
3.13,-14.9493933269751
3.136,-14.8971967437925
3.142,-14.843404950711
3.148,-14.7881026800479
3.154,-14.7313865153365
3.16,-14.6733659204991
3.166,-14.6141643211066
3.172,-14.5539202305712
3.178,-14.4927884111552
3.184,-14.4309410561312
3.19,-14.3685689752618
3.196,-14.3058827609402
3.202,-14.2431139068557
3.208,-14.1805158449523
3.214,-14.1183648598386
3.22,-14.0569608328399
3.226,-13.9966277608373
3.232,-13.937713988261
3.238,-13.8805920846174
3.244,-13.8256582953342
3.25,-13.7733314912816
3.256,-13.7222617205251
3.262,-13.6741863536086
3.268,-13.629535613914
3.274,-13.588759768533
3.28,-13.5523263467514
3.286,-13.5207165834234
3.292,-13.4944210507198
3.298,-13.4739344689007
3.304,-13.4597497210196
3.31,-13.4523511370791
3.316,-13.4522071585243
3.322,-13.4597625415997
3.328,-13.475430304639
3.334,-13.4995836657475
3.34,-13.5325482492098
3.346,-13.5745948570452
3.352,-13.6259331029423
3.358,-13.6867061871011
3.364,-13.75698705189
3.37,-13.8367761013224
3.376,-13.9260005958978
3.382,-14.024515753788
3.388,-14.1321075062621
3.394,-14.2484967765255
3.4,-14.373345083161
3.406,-14.5062612171263
3.412,-14.6468087079655
3.418,-14.7945137816093
3.424,-14.9488735179276
3.43,-15.1093639384257
3.436,-15.2754477893908
3.442,-15.4465818290353
3.448,-15.6222234744316
3.454,-15.8018367113848
3.46,-15.984897214706
3.466,-16.1708966653761
3.472,-16.3593462834793
3.478,-16.5497796209879
3.484,-16.7417546766083
3.49,-16.9348554065233
3.496,-17.1286927108699
3.502,-17.3229049771825
3.508,-17.5171582598504
3.514,-17.7111461698639
3.52,-17.9045895425984
3.526,-18.0972359438442
3.532,-18.2888590662786
3.538,-18.4792580605312
3.544,-18.6682568372078
3.55,-18.8557033689084
3.556,-19.0414690145086
3.562,-19.2254478818255
3.568,-19.4075562392499
3.574,-19.5877319819807
3.58,-19.7659341540932
3.586,-19.942142523755
3.592,-20.1163572054329
3.598,-20.2885983198503
3.604,-20.4589056797323
3.61,-20.6273384869956
3.616,-20.7939750249865
3.622,-20.9589123276685
3.628,-21.122265806326
3.634,-21.2841688134344
3.64,-21.4447721229066
3.646,-21.6042433060251
3.652,-21.7627659830929
3.658,-21.9205389322498
3.664,-22.0777750390882
3.67,-22.2347000737105
3.676,-22.3915512857367
3.682,-22.5485758124977
3.688,-22.7060289011853
3.694,-22.8641719519904
3.7,-23.023270396078
3.706,-23.1835914294113
3.712,-23.3454016306714
3.718,-23.5089644984807
3.724,-23.6745379494757
3.73,-23.8423718240765
3.736,-24.0127054507066
3.742,-24.1857653213708
3.748,-24.361762931629
3.754,-24.5408928359466
3.76,-24.7233309650974
3.766,-24.909233245838
3.772,-25.0987345547087
3.778,-25.2919480278962
3.784,-25.4889647381224
3.79,-25.6898537380414
3.796,-25.8946624582492
3.802,-26.1034174373031
3.808,-26.3161253516595
3.814,-26.5327743055935
3.82,-26.7533353352767
3.826,-26.9777640774434
3.832,-27.2060025514897
3.838,-27.4379810043355
3.844,-27.6736197697197
3.85,-27.9128310974975
3.856,-28.1555209136183
3.862,-28.4015904774048
3.868,-28.6509379091672
3.874,-28.9034595677274
3.88,-29.1590512637991
3.886,-29.4176093011458
3.892,-29.6790313428199
3.898,-29.9432171044814
3.904,-30.2100688807113
3.91,-30.47949191338
3.916,-30.7513946135099
3.922,-31.025688649742
3.928,-31.3022889175443
3.934,-31.5811134037701
3.94,-31.8620829611669
3.946,-32.1451210070503
3.952,-32.4301531596548
3.958,-32.7171068247544
3.964,-33.0059107440551
3.97,-33.2964945156718
3.976,-33.5887880957622
3.982,-33.8827212891301
3.988,-34.1782232353826
3.994,-34.4752218960387
4,-34.7736435468738
4.006,-35.0734122787618
4.012,-35.3744495093469
4.018,-35.6766735070666
4.024,-35.9799989283456
4.03,-36.2843363682111
4.036,-36.5895919241306
4.042,-36.8956667725601
4.048,-37.202456757511
4.054,-37.5098519903991
4.06,-37.8177364605336
4.066,-38.1259876558372
4.072,-38.4344761937662
4.078,-38.7430654629083
4.084,-39.0516112763974
4.09,-39.3599615390726
4.096,-39.667955931236
4.102,-39.9754256129151
4.108,-40.2821929537016
4.114,-40.5880712945066
4.12,-40.8928647489144
4.126,-41.1963680532141
4.132,-41.4983664755916
4.138,-41.798635796338
4.144,-42.0969423722107
4.15,-42.3930432991957
4.156,-42.6866866887972
4.162,-42.9776120735125
4.168,-43.26555095725
4.174,-43.550227525999
4.18,-43.8313595329539
4.186,-44.1086593704321
4.192,-44.3818353382102
4.198,-44.6505931142719
4.204,-44.9146374293855
4.21,-45.1736739414207
4.216,-45.4274112989599
4.222,-45.6755633766869
4.228,-45.917851657488
4.234,-46.1540077284485
4.24,-46.3837758503577
4.246,-46.6069155533524
4.252,-46.8232042053957
4.258,-47.0324394958577
4.264,-47.2344417739584
4.27,-47.429056181604
4.276,-47.6161545224313
4.282,-47.7956368137624
4.288,-47.9674324755945
4.294,-48.1315011204496
4.3,-48.2878329194713
4.306,-48.4364485330206
4.312,-48.5773986075161
4.318,-48.7107628536834
4.324,-48.8366487339982
4.33,-48.9551897983001
4.336,-49.066543715767
4.342,-49.1708900583057
4.348,-49.2684278947146
4.354,-49.3593732566699
4.36,-49.4439565368139
4.366,-49.5224198762424
4.372,-49.5950145938639
4.378,-49.6619987038787
4.384,-49.7236345604496
4.39,-49.7801866609588
4.396,-49.8319196314804
4.402,-49.8790964105861
4.408,-49.9219766406278
4.414,-49.9608152694067
4.42,-49.9958613597653
4.426,-50.027357100196
4.432,-50.0555370060498
4.438,-50.0806272983105
4.444,-50.1028454450994
4.45,-50.1223998500032
4.456,-50.13948967087
4.462,-50.1543047527717
4.468,-50.1670256593054
4.474,-50.1778237871735
4.48,-50.1868615499815
4.486,-50.1942926183277
4.492,-50.2002622044756
4.498,-50.204907381145
4.504,-50.2083574251902
4.51,-50.2107341781185
4.516,-50.2121524165282
4.522,-50.2127202265834
4.528,-50.212539377599
4.534,-50.2117056906684
4.54,-50.2103093990329
4.546,-50.2084354975722
4.552,-50.2061640793837
4.558,-50.2035706579327
4.564,-50.2007264736924
4.57,-50.197698784565
4.576,-50.1945511396866
4.582,-50.1913436364804
4.588,-50.1881331610303
4.594,-50.1849736120276
4.6,-50.1819161086723
4.606,-50.1790091830247
4.612,-50.1762989573824
4.618,-50.1738293073192
4.624,-50.1716420110642
4.63,-50.1697768859303
4.636,-50.1682719125114
4.642,-50.1671633473799
4.648,-50.1664858250075
4.654,-50.1662724496262
4.66,-50.1665548777322
4.666,-50.1673633919159
4.672,-50.1687269666809
4.678,-50.1706733268913
4.684,-50.1732289994613
4.69,-50.1764193588755
4.696,-50.1802686671005
4.702,-50.1848001084235
4.708,-50.190035819723
4.714,-50.1959969166538
4.72,-50.2027035161973
4.726,-50.2101747560063
4.732,-50.2184288109448
4.738,-50.2274829071964
4.744,-50.2373533342957
4.75,-50.2480554554077
4.756,-50.2596037161588
4.762,-50.2720116522994
4.768,-50.285291896458
4.774,-50.2994561842217
4.78,-50.3145153597599
4.786,-50.3304793811864
4.792,-50.347357325836
4.798,-50.3651573956131
4.804,-50.3838869225496
4.81,-50.4035523746958
4.816,-50.424159362447
4.822,-50.4457126453948
4.828,-50.4682161397772
4.834,-50.4916729265847
4.84,-50.5160852603685
4.846,-50.5414545787818
4.852,-50.5677815128746
4.858,-50.5950658981497
4.864,-50.623306786378
4.87,-50.6525024581612
4.876,-50.6826504362204
4.882,-50.7137474993823
4.888,-50.7457896972266
4.894,-50.778772365352
4.9,-50.8126901412123
4.906,-50.8475369804693
4.912,-50.8833061738067
4.918,-50.9199903641427
4.924,-50.9575815641799
4.93,-50.9960711742261
4.936,-51.0354500002217
4.942,-51.0757082719051
4.948,-51.116835661051
4.954,-51.1588212997141
4.96,-51.2016537984145
4.966,-51.2453212642003
4.972,-51.289811318526
4.978,-51.3351111148881
4.984,-51.3812073561605
4.99,-51.4280863115777
4.996,-51.4757338333134
5.002,-51.524135372611
5.008,-51.5732759954193
5.014,-51.6231403974984
5.02,-51.6737129189565
5.026,-51.7249775581907
5.032,-51.7769179852012
5.038,-51.8295175542587
5.044,-51.8827593159057
5.05,-51.9366260282761
5.056,-51.9911001677241
5.062,-52.0461639387568
5.068,-52.101799283265
5.074,-52.1579878890577
5.08,-52.2147111977031
5.086,-52.2719504116858
5.092,-52.3296865008941
5.098,-52.387900208452
5.104,-52.4465720559159
5.11,-52.5056823478605
5.116,-52.5652111758765
5.122,-52.6251384220142
5.128,-52.685443761699
5.134,-52.7461066661581
5.14,-52.8071064043943
5.146,-52.868422044746
5.152,-52.9300324560774
5.158,-52.9919163086416
5.164,-53.0540520746663
5.17,-53.1164180287078
5.176,-53.1789922478281
5.182,-53.2417526116443
5.188,-53.3046768023077
5.194,-53.3677423044679
5.2,-53.4309264052798
5.206,-53.4942061945132
5.212,-53.5575585648249
5.218,-53.6209602122557
5.224,-53.6843876370148
5.23,-53.7478171446142
5.236,-53.8112248474188
5.242,-53.874586666675
5.248,-53.9378783350835
5.254,-54.001075399981
5.26,-54.0641532271945
5.266,-54.1270870056326
5.272,-54.1898517526763
5.278,-54.2524223204323
5.284,-54.3147734029071
5.29,-54.3768795441625
5.296,-54.4387151475072
5.302,-54.5002544857788
5.308,-54.561471712766
5.314,-54.6223408758195
5.32,-54.6828359296918
5.326,-54.7429307516473
5.332,-54.802599157874
5.338,-54.8618149212261
5.344,-54.9205517903183
5.35,-54.9787835099888
5.356,-55.0364838431375
5.362,-55.0936265939424
5.368,-55.1501856324459
5.374,-55.2061349204956
5.38,-55.2614485390158
5.386,-55.3161007165758
5.392,-55.3700658592122
5.398,-55.4233185814516
5.404,-55.4758337384715
5.41,-55.5275864593248
5.416,-55.5785521811465
5.422,-55.6287066842457
5.428,-55.6780261279822
5.434,-55.7264870873108
5.44,-55.7740665898716
5.446,-55.8207421534926
5.452,-55.8664918239629
5.458,-55.9112942129276
5.464,-55.9551285357468
5.47,-55.9979746491552
5.476,-56.039813088554
5.482,-56.0806251047619
5.488,-56.1203927000478
5.494,-56.1590986632678
5.5,-56.1967266039267
5.506,-56.2344426841942
5.512,-56.2721619669771
5.518,-56.3098813408807
5.524,-56.3475975923856
5.53,-56.3853074032441
5.536,-56.4230073478269
5.542,-56.4606938904194
5.548,-56.4983633824691
5.554,-56.5360120597817
5.56,-56.5736360396691
5.566,-56.6112313180474
5.572,-56.6487937664863
5.578,-56.6863191292098
5.584,-56.7238030200495
5.59,-56.7612409193504
5.596,-56.7986281708311
5.602,-56.8359599783977
5.608,-56.8732314029145
5.614,-56.9104373589308
5.62,-56.9475726113668
5.626,-56.9846317721585
5.632,-57.021609296865
5.638,-57.0584994812387
5.644,-57.0952964577612
5.65,-57.1319941921463
5.656,-57.168586479814
5.662,-57.2050669423364
5.668,-57.2414290238594
5.674,-57.2776659875033
5.68,-57.3137709117446
5.686,-57.3497366867841
5.692,-57.3855560109035
5.698,-57.4212213868157
5.704,-57.4567251180124
5.71,-57.4920593051145
5.716,-57.5272158422288
5.722,-57.5621864133174
5.728,-57.5969624885851
5.734,-57.6315353208896
5.74,-57.6658959421827
5.746,-57.7000351599862
5.752,-57.733943553912
5.758,-57.7676114722316
5.764,-57.8010290285036
5.77,-57.8341860982662
5.776,-57.8670723158043
5.782,-57.899677070998
5.788,-57.9319895062628
5.794,-57.96399851359
5.8,-57.9956927316982
5.806,-58.0270605433044
5.812,-58.0580900725259
5.818,-58.0887691824248
5.824,-58.1190854727041
5.83,-58.1490262775697
5.836,-58.1785786637675
5.842,-58.2077294288101
5.848,-58.2364650994048
5.854,-58.2647719300955
5.86,-58.2926359021328
5.866,-58.3200427225851
5.872,-58.3469778237054
5.878,-58.3734263625674
5.884,-58.3993732209852
5.89,-58.4248030057322
5.896,-58.4497000490737
5.902,-58.4740484096279
5.908,-58.4978318735716
5.914,-58.5210339562047
5.92,-58.5436379038905
5.926,-58.5656266963868
5.932,-58.5869830495832
5.938,-58.6076894186606
5.944,-58.6277280016889
5.95,-58.647080743678
5.956,-58.6657293410977
5.962,-58.6836552468821
5.968,-58.7008396759332
5.974,-58.7172636111392
5.98,-58.7329078099214
5.986,-58.7477528113247
5.992,-58.7617789436645
5.998,-58.7749663327447
6.004,-58.7872949106583
6.01,-58.7987444251847
6.016,-58.8092944497929
6.022,-58.8189243942646
6.028,-58.8276135159443
6.034,-58.835340931629
6.04,-58.8420856301038
6.046,-58.8478264853318
6.052,-58.8525422703053
6.058,-58.8562116715636
