"Freq [GHz]","dB(St(7,6)) []"
1,-12.9796641525859
1.006,-13.6393346080003
1.012,-12.5392779456148
1.018,-11.0762171662687
1.024,-9.74275683812009
1.03,-8.62863777916192
1.036,-7.71963487984825
1.042,-6.98267145635074
1.048,-6.38637527055935
1.054,-5.90515069973089
1.06,-5.51963700238621
1.066,-5.2213204191459
1.072,-4.89818857881676
1.078,-4.75121680618415
1.084,-4.61376888992013
1.09,-4.51432740818302
1.096,-4.45013621548953
1.102,-4.41766150134607
1.108,-4.41376518492194
1.114,-4.43579140822879
1.12,-4.48151716752152
1.126,-4.54910337059618
1.132,-4.63715112496672
1.138,-4.74644502909507
1.144,-4.86252054652411
1.15,-5.00500385491766
1.156,-5.16134602587508
1.162,-5.33211594503079
1.168,-5.51670262684655
1.174,-5.71442160315051
1.18,-5.92459771219211
1.186,-6.14657392333295
1.192,-6.37970814719346
1.198,-6.62336783892802
1.204,-6.87692455070026
1.21,-7.13974895079224
1.216,-7.4112064276861
1.222,-7.69065335775734
1.228,-7.9774342642926
1.234,-8.27088048654835
1.24,-8.57031189242835
1.246,-8.87504546810748
1.252,-9.18442112621923
1.258,-9.49787663944946
1.264,-9.81519260650708
1.27,-10.1375447290648
1.276,-10.4758382541361
1.282,-10.8769340225155
1.288,-11.1031287496691
1.294,-11.4241242009397
1.3,-11.7460955971065
1.306,-12.0658595785008
1.312,-12.3823979250293
1.318,-12.6950511228389
1.324,-13.0032371700995
1.33,-13.3063943105715
1.336,-13.6040223083789
1.342,-13.8960058268037
1.348,-14.1863582381901
1.354,-14.431597381755
1.36,-14.7093237966201
1.366,-14.9665236902342
1.372,-15.2112675525839
1.378,-15.4436313657054
1.384,-15.6640019423054
1.39,-15.8758007240771
1.396,-16.0912501521667
1.402,-16.3114862139083
1.408,-17.6199855918897
1.414,-17.2100861622887
1.42,-17.267160094629
1.426,-17.319992019615
1.432,-17.3699898427328
1.438,-17.4172548899346
1.444,-17.462154051411
1.45,-17.5050026218646
1.456,-17.5461200818243
1.462,-17.5854713761549
1.468,-17.6236088486706
1.474,-17.6606503692617
1.48,-17.6966191612668
1.486,-17.7318739982034
1.492,-17.7664883032816
1.498,-17.8006250945162
1.504,-17.8343788435064
1.51,-17.8678624096971
1.516,-17.9011610242012
1.522,-17.9343171085845
1.528,-17.9687055407038
1.534,-18.0009680000569
1.54,-18.0342130200742
1.546,-18.0675975544724
1.552,-18.1011259049235
1.558,-18.1348129373327
1.564,-18.16868610706
1.57,-18.2028195802688
1.576,-18.2371890736328
1.582,-18.2717949822039
1.588,-18.3066359992459
1.594,-18.341709270234
1.6,-18.3770105480824
1.606,-18.412534348063
1.612,-18.4482741010677
1.618,-18.4842223040318
1.624,-18.5203706664638
1.63,-18.5567102520981
1.636,-18.5932316146642
1.642,-18.6299249265809
1.648,-18.6667800988632
1.654,-18.703786889303
1.66,-18.7409349930758
1.666,-18.778214102667
1.672,-18.8156139040426
1.678,-18.8531239130453
1.684,-18.8907328153529
1.69,-18.9284257429503
1.696,-18.9661673659412
1.702,-19.0033414996174
1.708,-19.042329368843
1.714,-19.0802428465051
1.72,-19.1182933802036
1.726,-19.1564163985734
1.732,-19.1945975710527
1.738,-19.2328296626997
1.744,-19.2711065591028
1.75,-19.3094197949228
1.756,-19.3477510832822
1.762,-19.3860426746051
1.768,-19.4239725952329
1.774,-19.4751280585544
1.78,-19.5034162853634
1.786,-19.5417104115224
1.792,-19.5803789099742
1.798,-19.6191756346639
1.804,-19.657833345733
1.81,-19.7000987630782
1.816,-19.7375805662725
1.822,-19.7769320054648
1.828,-19.8165964377343
1.834,-19.8564991081671
1.84,-19.896580120461
1.846,-19.936897036046
1.852,-19.9774059243098
1.858,-20.0181715240901
1.864,-20.0591982830572
1.87,-20.1005105221686
1.876,-20.14213523564
1.882,-20.1841015281102
1.888,-20.2264415022371
1.894,-20.2691931976857
1.9,-20.3124112145083
1.906,-20.3562249410553
1.912,-20.4019203892292
1.918,-20.4431667791031
1.924,-20.4889800954371
1.93,-20.5348628842963
1.936,-20.5812732759534
1.942,-20.6283074435185
1.948,-20.6760206413856
1.954,-20.724459582308
1.96,-20.7736708629364
1.966,-20.8237072403458
1.972,-20.8746426929191
1.978,-20.9266568662603
1.984,-20.9876916382345
1.99,-21.0321866006021
1.996,-21.0877433191447
2.002,-21.1450830042665
2.008,-21.2064609294157
2.014,-21.285765984481
2.02,-21.2915327211171
2.026,-21.351029079416
2.032,-21.4176843167534
2.038,-21.4846511716572
2.044,-21.5551206846406
2.05,-21.6308202573139
2.056,-21.7118369421753
2.062,-21.7964566461782
2.068,-21.8823604345697
2.074,-21.9680914598329
2.08,-22.0533919876214
2.086,-22.138701473826
2.092,-22.2246421123088
2.098,-22.311770636689
2.104,-22.4005162767903
2.11,-22.4911933659183
2.116,-22.5840308076868
2.122,-22.6791983895768
2.128,-22.7819564865136
2.134,-22.8935957463311
2.14,-23.0095649680285
2.146,-23.1300824593447
2.152,-23.2553875913957
2.158,-23.3857426248358
2.164,-23.5214346922091
2.17,-23.6627779526807
2.176,-23.8101159376302
2.182,-23.9638241084203
2.188,-24.1243126512124
2.194,-24.2920295382027
2.2,-24.4674638904226
2.206,-24.6511496846833
2.212,-24.8436698569003
2.218,-25.0456608666141
2.224,-25.2578178039983
2.23,-25.4809001422673
2.236,-25.715738266856
2.242,-25.9632409502947
2.248,-26.2244039913855
2.254,-26.5003203032117
2.26,-26.7921918223344
2.266,-27.1013437290571
2.272,-27.4292416268655
2.278,-27.7775125436988
2.284,-28.1479709112425
2.29,-28.5426510842712
2.296,-28.9638485301904
2.302,-29.4141726256578
2.308,-29.8966151614046
2.314,-30.4146403672962
2.32,-30.9723048349351
2.326,-31.5744196472656
2.332,-32.2267732000133
2.338,-32.9364431596603
2.344,-33.7122425431869
2.35,-34.5653732727423
2.356,-35.510410962292
2.362,-36.5668377579818
2.368,-37.7615189605704
2.374,-39.1328764511
2.38,-40.7382411516397
2.386,-42.6672784709658
2.392,-45.0658763541678
2.398,-48.1602405585188
2.404,-52.0136555355352
2.41,-53.9372808570886
2.416,-50.6962929046835
2.422,-46.9696572398171
2.428,-43.971243344742
2.434,-41.3861177160024
2.44,-38.7368021541668
2.446,-35.4868885123482
2.452,-46.6184780480357
2.458,-44.1374486331005
2.464,-40.7916349501909
2.47,-39.1021527845924
2.476,-37.9609848802763
2.482,-37.0872294468624
2.488,-36.3747949848424
2.494,-35.772896067874
2.5,-35.2531379529796
2.506,-34.7978370822012
2.512,-34.395099357406
2.518,-34.0364699409671
2.524,-33.7157003705641
2.53,-33.4280547371275
2.536,-33.1698999608493
2.542,-32.9384584262269
2.548,-32.7316611995591
2.554,-32.5480686665431
2.56,-32.3868384258194
2.566,-32.247722143677
2.572,-32.1310605824169
2.578,-32.0377061406215
2.584,-31.9687072178584
2.59,-31.9244007370318
2.596,-31.9023050309321
2.602,-31.8932947572049
2.608,-31.8773739680471
2.614,-31.8252665638809
2.62,-31.7136222843867
2.626,-31.5450493691696
2.632,-31.3472741278405
2.638,-31.1512185816746
2.644,-30.9751524021662
2.65,-30.8244874544101
2.656,-30.6976655089677
2.662,-30.5907935612891
2.668,-30.4998661414133
2.674,-30.4215086932597
2.68,-30.3530826968437
2.686,-30.2925809434163
2.692,-30.2384843449303
2.698,-30.1896358420843
2.704,-30.1451429252273
2.71,-30.1043061131012
2.716,-30.0665675711923
2.722,-30.0314744188749
2.728,-29.998652472344
2.734,-29.9677873315226
2.74,-29.9386106314239
2.746,-29.910889940588
2.752,-29.8844212532567
2.758,-29.8590233423052
2.764,-29.8345334600505
2.77,-29.8108040254193
2.776,-29.7877000405122
2.782,-29.76509705227
2.788,-29.7428795258474
2.794,-29.7209395322389
2.8,-29.6991756782969
2.806,-29.6774922256748
2.812,-29.6557983585596
2.818,-29.6340075698046
2.824,-29.6120371422655
2.83,-29.5898077074916
2.836,-29.5672428679431
2.842,-29.5442688719416
2.848,-29.5208143328871
2.854,-29.4968099860578
2.86,-29.4721884777061
2.866,-29.4468841822505
2.872,-29.4208330442306
2.878,-29.3939724423864
2.884,-29.366241073783
2.89,-29.3375788563667
2.896,-29.3079268487205
2.902,-29.277227186115
2.908,-29.2454230322295
2.914,-29.2124585461653
2.92,-29.1782788645952
2.926,-29.1428300990922
2.932,-29.1060593488721
2.938,-29.0679147293623
2.944,-29.0283454171858
2.95,-28.9873017123214
2.956,-28.9447351183744
2.962,-28.9005984420707
2.968,-28.8548459132666
2.974,-28.8074333269546
2.98,-28.7583182089422
2.986,-28.707460007081
2.992,-28.6548203101377
2.998,-28.6003630966158
3.004,-28.5440550160658
3.01,-28.4858657056527
3.016,-28.4257681449867
3.022,-28.363739052455
3.028,-28.2997593265232
3.034,-28.2338145356856
3.04,-28.1658954609352
3.046,-28.0959986947744
3.052,-28.0241273008866
3.058,-27.9502915386128
3.064,-27.8745096562982
3.07,-27.7968087573643
3.076,-27.7172257425782
3.082,-27.635808331389
3.088,-27.5526161643192
3.094,-27.4677219871836
3.1,-27.3812129162658
3.106,-27.2931917814472
3.112,-27.203778541546
3.118,-27.1131117626966
3.124,-27.0213501463718
3.13,-26.9286740885384
3.136,-26.8352872453416
3.142,-26.7414180736059
3.148,-26.6473213062898
3.154,-26.5532793139187
3.16,-26.4596032930951
3.166,-26.3666342127371
3.172,-26.2747434381695
3.178,-26.1843329432389
3.184,-26.095835012092
3.19,-26.0097113262546
3.196,-25.926451330477
3.202,-25.8465697739675
3.208,-25.7706033336756
3.214,-25.6991062447115
3.22,-25.6326448910101
3.226,-25.5717913476528
3.232,-25.5171159146884
3.238,-25.4691787395907
3.244,-25.4285206890612
3.25,-25.3956536967174
3.256,-25.3420472617142
3.262,-25.2931045161043
3.268,-25.249299490075
3.274,-25.2111265799584
3.28,-25.1790975234912
3.286,-25.1537375206342
3.292,-25.1355804486605
3.298,-25.1251631473256
3.304,-25.1230187850475
3.31,-25.1296693595551
3.316,-25.1456174349689
3.322,-25.1713372692373
3.328,-25.2072655378069
3.334,-25.2537919069887
3.34,-25.3112497489045
3.346,-25.3799073143455
3.352,-25.4599596862536
3.358,-25.551521822081
3.364,-25.654622957185
3.37,-25.7692025851869
3.376,-25.8951081587471
3.382,-26.0320945714365
3.388,-26.1798253956499
3.394,-26.337875770641
3.4,-26.5057367660589
3.406,-26.6828209956742
3.412,-26.8684692270196
3.418,-27.0619577266703
3.424,-27.2625060966255
3.43,-27.4692853913939
3.436,-27.6814263530244
3.442,-27.8980276566504
3.448,-28.1181641160541
3.454,-28.3408948515002
3.46,-28.5652714655026
3.466,-28.7903463021382
3.472,-29.0151808789791
3.478,-29.2388545759723
3.484,-29.4604736423022
3.49,-29.6791805415755
3.496,-29.8941636002939
3.502,-30.1046668588285
3.508,-30.3099999537937
3.514,-30.5095477928256
3.52,-30.7027797249849
3.526,-30.8892578698841
3.532,-31.068644252722
3.538,-31.2407064051741
3.544,-31.4053211351231
3.55,-31.5624762396623
3.556,-31.7122700303205
3.562,-31.85490864875
3.568,-31.9907012649345
3.574,-32.1200533575505
3.58,-32.2434583675987
3.586,-32.3614880841953
3.592,-32.4747821609694
3.598,-32.5840371717563
3.604,-32.6899955973369
3.61,-32.7934350954676
3.616,-32.8951583506089
3.622,-32.9959837343633
3.628,-33.0967369391661
3.634,-33.1982436817152
3.64,-33.3013235131115
3.646,-33.4067847223409
3.652,-33.5154202798076
3.658,-33.6280047381726
3.664,-33.7452919879557
3.67,-33.8680137538155
3.676,-33.9968787124076
3.682,-34.1325721124173
3.688,-34.2757557799661
3.694,-34.4270683964278
3.7,-34.5871259392097
3.706,-34.7565221778517
3.712,-34.9358291165193
3.718,-35.1255972682825
3.724,-35.3263556350474
3.73,-35.5386112480133
3.736,-35.7628480951137
3.742,-35.9995252216527
3.748,-36.2490737352629
3.754,-36.5118923726374
3.76,-36.7883411886326
3.766,-37.0787328028616
3.772,-37.3833204786876
3.778,-37.7022821084219
3.784,-38.035698931704
3.79,-38.3835275207597
3.796,-38.74556323507
3.802,-39.1213930059678
3.808,-39.5103350196605
3.814,-39.9113627442436
3.82,-40.3230110055673
3.826,-40.7432628124374
3.832,-41.1694179064516
3.838,-41.5979483147487
3.844,-42.0243533828306
3.85,-42.4430375188796
3.856,-42.8472478887054
3.862,-43.2291240026275
3.868,-43.5799201681253
3.874,-43.8904544210059
3.88,-44.1518015963822
3.886,-44.3561785769789
3.892,-44.497880727262
3.898,-44.5740591617102
3.904,-44.5851273603854
3.91,-44.5346751748333
3.916,-44.4289168694458
3.922,-44.2758351781708
3.928,-44.0842425219359
3.934,-43.8629514148005
3.94,-43.6201644129851
3.946,-43.3631083485191
3.952,-43.0978790846087
3.958,-42.8294380223139
3.964,-42.5617012445234
3.97,-42.2976741537753
3.976,-42.039599420376
3.982,-41.789099095257
3.988,-41.5473012458059
3.994,-41.3149475874988
4,-41.0924820994516
4.006,-40.88012237626
4.012,-40.677916162638
4.018,-40.4857856152069
4.024,-40.3035616375089
4.03,-40.1310103160751
4.036,-39.9678531428616
4.042,-39.8137823895759
4.048,-39.6684727216031
4.054,-39.5315899079281
4.06,-39.4027972959507
4.066,-39.2817605707907
4.072,-39.1681512012057
4.078,-39.0616488825596
4.084,-38.9619432161127
4.09,-38.8687348088496
4.096,-38.7817359355764
4.102,-38.7006708722604
4.108,-38.6252759843536
4.114,-38.5552996343909
4.12,-38.4905019581801
4.126,-38.4306545473391
4.132,-38.3755400670337
4.138,-38.3249518308884
4.144,-38.2786933497387
4.15,-38.2365778667927
4.156,-38.1984278886097
4.162,-38.1640747188621
4.168,-38.1333579999672
4.174,-38.1061252662296
4.18,-38.0822315110229
4.186,-38.0615387696939
4.192,-38.0439157192236
4.198,-38.0292372951918
4.204,-38.0173843262258
4.21,-38.0082431858436
4.216,-38.0017054614011
4.222,-37.997667639716
4.228,-37.9960308088407
4.234,-37.996700375395
4.24,-37.999585796832
4.246,-38.0046003279922
4.252,-38.0116607812985
4.258,-38.0206872999517
4.264,-38.0316031435045
4.27,-38.0443344852106
4.276,-38.0588102205746
4.282,-38.0749617865539
4.288,-38.0927229908968
4.294,-38.1120298511279
4.3,-38.1328204427269
4.306,-38.1550347560725
4.312,-38.1786145617574
4.318,-38.2035032839036
4.324,-38.2296458811398
4.33,-38.2569887349245
4.336,-38.2854795449226
4.342,-38.3150672311701
4.348,-38.3457018427772
4.354,-38.3773344729427
4.36,-38.4099171800697
4.366,-38.4434029147882
4.372,-38.4777454527044
4.378,-38.5128993327097
4.384,-38.5488198006933
4.39,-38.5854627585114
4.396,-38.622784718074
4.402,-38.6607427604167
4.408,-38.6992944996289
4.414,-38.7383980515149
4.42,-38.7780120068627
4.426,-38.8180954092002
4.432,-38.8586077369134
4.438,-38.8995088896022
4.444,-38.9407591785422
4.45,-38.9823193211228
4.456,-39.0241504391172
4.462,-39.0662140606427
4.468,-39.1084721256555
4.474,-39.1508869948202
4.48,-39.1934214615827
4.486,-39.2360387672693
4.492,-39.2787026190221
4.498,-39.3213772103733
4.504,-39.3640272442509
4.51,-39.4066179581996
4.516,-39.4491151515888
4.522,-39.4914852145756
4.528,-39.5336951585785
4.534,-39.5757126480124
4.54,-39.617506033029
4.546,-39.6590443830023
4.552,-39.7002975204928
4.558,-39.741236055425
4.564,-39.7818314192095
4.57,-39.8220558985421
4.576,-39.861882668616
4.582,-39.9012858254864
4.588,-39.9402404173332
4.594,-39.9787224743752
4.6,-40.0167090372002
4.606,-40.0541781832846
4.612,-40.0911090514923
4.618,-40.1274818643546
4.624,-40.1632779479525
4.63,-40.1984797492375
4.636,-40.2330708506486
4.642,-40.2670359819031
4.648,-40.3003610288571
4.654,-40.3330330393591
4.66,-40.3650402260354
4.666,-40.3963719659746
4.672,-40.4270187972977
4.678,-40.4569724126222
4.684,-40.4862256494543
4.69,-40.5147724775584
4.696,-40.5426079833805
4.702,-40.5697283516143
4.708,-40.5961308440229
4.714,-40.621813775642
4.72,-40.6467764885064
4.726,-40.6710193230558
4.732,-40.6945435873872
4.738,-40.7173515245311
4.744,-40.7394462779369
4.75,-40.7608318553589
4.756,-40.7815130913399
4.762,-40.8014956084899
4.768,-40.8207857777614
4.774,-40.8393906779187
4.78,-40.8573180543975
4.786,-40.8745762777502
4.792,-40.8911743018606
4.798,-40.9071216221122
4.804,-40.922428233682
4.81,-40.9371045901251
4.816,-40.9511615624055
4.822,-40.9646103985195
4.828,-40.9774626838457
4.834,-40.9897303023455
4.84,-41.0014253987285
4.846,-41.0125603416817
4.852,-41.0231476882544
4.858,-41.0332001494764
4.864,-41.0427305572767
4.87,-41.0517518327603
4.876,-41.0602769558868
4.882,-41.0683189365893
4.888,-41.075890787357
4.894,-41.0830054973001
4.9,-41.0896760077044
4.906,-41.0959151890762
4.912,-41.1017358196699
4.918,-41.1071505654842
4.924,-41.1121719617078
4.93,-41.1168123955868
4.936,-41.1210840906845
4.942,-41.1249990924984
4.948,-41.1285692553942
4.954,-41.1318062308162
4.96,-41.1347214567273
4.966,-41.1373261482338
4.972,-41.1396312893433
4.978,-41.1416476258073
4.984,-41.1433856589972
4.99,-41.144855640761
4.996,-41.1460675692094
5.002,-41.14703118538
5.008,-41.1477559707266
5.014,-41.1482511453847
5.02,-41.148525667162
5.026,-41.1485882312053
5.032,-41.1484472702965
5.038,-41.1481109557309
5.044,-41.1475871987333
5.05,-41.1468836523684
5.056,-41.1460077139038
5.062,-41.1449665275864
5.068,-41.1437669877928
5.074,-41.1424157425187
5.08,-41.1409191971706
5.086,-41.1392835186298
5.092,-41.1375146395549
5.098,-41.1356182628949
5.104,-41.133599866585
5.11,-41.1314647083993
5.116,-41.1292178309352
5.122,-41.1268640667082
5.128,-41.1244080433348
5.134,-41.1218541887845
5.14,-41.1192067366818
5.146,-41.1164697316426
5.152,-41.1136470346285
5.158,-41.1107423283044
5.164,-41.1077591223878
5.17,-41.1047007589761
5.176,-41.1015704178418
5.182,-41.0983711216863
5.188,-41.0951057413417
5.194,-41.0917770009149
5.2,-41.0883874828641
5.206,-41.084939633004
5.212,-41.0814357654316
5.218,-41.0778780673702
5.224,-41.0742686039246
5.23,-41.0706093227458
5.236,-41.0669020586013
5.242,-41.0631485378479
5.248,-41.0593503828063
5.254,-41.0555091160335
5.26,-41.0516261644942
5.266,-41.0477028636278
5.272,-41.0437404613127
5.278,-41.0397401217255
5.284,-41.0357029290966
5.29,-41.0316298913613
5.296,-41.0275219437079
5.302,-41.0233799520224
5.308,-41.0192047162315
5.314,-41.0149969735443
5.32,-41.010757401594
5.326,-41.0064866214813
5.332,-41.0021852007203
5.338,-40.9978536560882
5.344,-40.9934924563822
5.35,-40.9891020250819
5.356,-40.9846827429226
5.362,-40.9802349503786
5.368,-40.9757589500592
5.374,-40.9712550090203
5.38,-40.9667233609908
5.386,-40.9621642085192
5.392,-40.9575777250388
5.398,-40.9529640568563
5.404,-40.9483233250635
5.41,-40.9436556273761
5.416,-40.9389610398988
5.422,-40.9342396188217
5.428,-40.9294914020475
5.434,-40.9247164107523
5.44,-40.9199146508814
5.446,-40.915086114583
5.452,-40.9102307815801
5.458,-40.9053486204832
5.464,-40.9004395900452
5.47,-40.8955036403611
5.476,-40.8905407140124
5.482,-40.8855507471593
5.488,-40.8805336705821
5.494,-40.8754894106732
5.5,-40.87041789038
5.506,-40.8490329750532
5.512,-40.8283412343973
5.518,-40.808333261415
5.524,-40.7889998309878
5.53,-40.7703319018752
5.536,-40.7523206181537
5.542,-40.7349573101565
5.548,-40.7182334949652
5.554,-40.7021408765049
5.56,-40.6866713452848
5.566,-40.6718169778264
5.572,-40.6575700358151
5.578,-40.6439229650081
5.584,-40.6308683939292
5.59,-40.6183991323777
5.596,-40.6065081697756
5.602,-40.5951886733763
5.608,-40.584433986354
5.614,-40.5742376257934
5.62,-40.5645932805946
5.626,-40.55549480931
5.632,-40.5469362379249
5.638,-40.5389117575953
5.644,-40.5314157223529
5.65,-40.524442646788
5.656,-40.5179872037181
5.662,-40.5120442218511
5.668,-40.5066086834496
5.674,-40.5016757220029
5.68,-40.4972406199122
5.686,-40.4932988061941
5.692,-40.489845854207
5.698,-40.4868774794043
5.704,-40.4843895371172
5.71,-40.482378020372
5.716,-40.4808390577424
5.722,-40.4797689112404
5.728,-40.4791639742475
5.734,-40.4790207694888
5.74,-40.4793359470492
5.746,-40.4801062824361
5.752,-40.4813286746865
5.758,-40.4830001445222
5.764,-40.4851178325516
5.77,-40.4876789975194
5.776,-40.4906810146055
5.782,-40.4941213737717
5.788,-40.4979976781577
5.794,-40.5023076425256
5.8,-40.5070490917534
5.806,-40.5122199593774
5.812,-40.5178182861829
5.818,-40.5238422188429
5.824,-40.5302900086058
5.83,-40.5371600100291
5.836,-40.5444506797621
5.842,-40.5521605753739
5.848,-40.5602883542289
5.854,-40.568832772407
5.86,-40.5777926836699
5.866,-40.5871670384717
5.872,-40.596954883014
5.878,-40.6071553583439
5.884,-40.6177676994954
5.89,-40.628791234673
5.896,-40.6402253844768
5.902,-40.6520696611687
5.908,-40.6643236679786
5.914,-40.6769870984503
5.92,-40.6900597358268
5.926,-40.7035414524728
5.932,-40.7174322093351
5.938,-40.7317320554401
5.944,-40.7464411274267
5.95,-40.7615596491142
5.956,-40.7770879311052
5.962,-40.7930263704216
5.968,-40.8093754501733
5.974,-40.8261357392593
5.98,-40.8433078920989
5.986,-40.860892648394
5.992,-40.87889083292
5.998,-40.8973033553449
6.004,-40.9161312100761
6.01,-40.9353754761328
6.016,-40.9550373170439
6.022,-40.97511798077
6.028,-40.9956187996481
6.034,-41.0165411903575
6.04,-41.0378866539069
6.046,-41.0596567756397
6.052,-41.0818532252573
6.058,-41.1044777568583
