"Freq [GHz]","dB(St(1,9)) []"
1,-3.2067561844227
1.006,-3.10480262172267
1.012,-3.02268117447685
1.018,-2.95838645552812
1.024,-2.90960001929803
1.03,-2.87339072694306
1.036,-2.86898135847099
1.042,-2.84145810832623
1.048,-2.83562029979672
1.054,-2.83777870482547
1.06,-2.84717148506754
1.066,-2.86729870270239
1.072,-2.83960017606333
1.078,-2.88633169405656
1.084,-2.91470038953711
1.09,-2.94463455399917
1.096,-2.97724723730181
1.102,-3.01269406018169
1.108,-3.05095982484392
1.114,-3.09198467872723
1.12,-3.13568467561849
1.126,-3.18192807968966
1.132,-3.23038231516813
1.138,-3.27826953704453
1.144,-3.3420436194606
1.15,-3.39581432720492
1.156,-3.45395194591357
1.162,-3.51456386162371
1.168,-3.57730576457425
1.174,-3.64198183477245
1.18,-3.70842643526196
1.186,-3.77648131222887
1.192,-3.84599024007309
1.198,-3.91679823099304
1.204,-3.98875209781685
1.21,-4.06170133157865
1.216,-4.13549889973457
1.222,-4.21000181171949
1.228,-4.28507140951572
1.234,-4.36057340274569
1.24,-4.43637771111751
1.246,-4.51235822401834
1.252,-4.58839268097077
1.258,-4.66436316740743
1.264,-4.7401589182497
1.27,-4.8156900918547
1.276,-4.89099991632518
1.282,-4.96669174836412
1.288,-5.03991985825146
1.294,-5.11359137546991
1.3,-5.18665304340163
1.306,-5.25903021328571
1.312,-5.33067431620754
1.318,-5.40154349978202
1.324,-5.47159963105947
1.33,-5.54080755315328
1.336,-5.60913485535511
1.342,-5.67655179153869
1.348,-5.74303124452919
1.354,-5.80854870205733
1.36,-5.87308223144536
1.366,-5.93661244817484
1.372,-5.99912247700125
1.378,-6.06059790634908
1.384,-6.12102673888513
1.39,-6.18039934543603
1.396,-6.23870844165897
1.402,-6.29594915181396
1.408,-6.35211944370017
1.414,-6.40722294903858
1.42,-6.46132831622179
1.426,-6.51411243816054
1.432,-6.56602396510631
1.438,-6.61685246420685
1.444,-6.66662328688728
1.45,-6.71534776390685
1.456,-6.76303665920041
1.462,-6.80970147343965
1.468,-6.85535465749384
1.474,-6.90000961573479
1.48,-6.94368065299499
1.486,-6.98638290407876
1.492,-7.02813225823794
1.498,-7.06894528328783
1.504,-7.10883915136199
1.51,-7.14783156724608
1.516,-7.18594069976128
1.522,-7.223185116437
1.528,-7.25958372158729
1.534,-7.29515569783109
1.54,-7.32992045104821
1.546,-7.36389755873037
1.552,-7.39710672166266
1.558,-7.42956771885322
1.564,-7.46084686160744
1.57,-7.49069478003284
1.576,-7.52073836369423
1.582,-7.55081991955587
1.588,-7.58079036120029
1.594,-7.61051337030258
1.6,-7.63986930077864
1.606,-7.66875881986212
1.612,-7.6971063540871
1.618,-7.72486348642996
1.624,-7.75201252202047
1.63,-7.77857047339111
1.636,-7.80459362831791
1.642,-7.83018242432779
1.648,-7.85548494419838
1.654,-7.88069331867017
1.66,-7.90601641227199
1.666,-7.93158405920933
1.672,-7.95717221886337
1.678,-7.98151820341777
1.684,-8.00094182837574
1.69,-8.00773369028158
1.696,-7.99192014884708
1.702,-7.9538239699583
1.708,-7.91862815036995
1.714,-7.90929424030315
1.72,-7.91834306565678
1.726,-7.93260730182297
1.732,-7.94667889598529
1.738,-7.9593771695021
1.744,-7.97072571623812
1.75,-7.98097698229081
1.756,-7.99038275865876
1.762,-7.99915810252483
1.768,-8.00748620327778
1.774,-8.01552770941124
1.78,-8.02342663071857
1.786,-8.03131100774346
1.792,-8.03928713197286
1.798,-8.04742554476901
1.804,-8.05573683821906
1.81,-8.06413687604909
1.816,-8.07240677490064
1.822,-8.08016561760297
1.828,-8.0868932825727
1.834,-8.09205637422009
1.84,-8.09537539652189
1.846,-8.09719797954051
1.852,-8.09881513789721
1.858,-8.10237964986845
1.864,-8.10972940324993
1.87,-8.11912533656997
1.876,-8.12188102956327
1.882,-8.10816422237865
1.888,-8.07937477855718
1.894,-8.04511183534673
1.9,-8.01226050141693
1.906,-7.98293425103429
1.912,-7.95692080994798
1.918,-7.93339712002915
1.924,-7.91155328956049
1.93,-7.89073605497965
1.936,-7.87044511896954
1.942,-7.85029870241731
1.948,-7.83000065918734
1.954,-7.80931542359589
1.96,-7.7880502184599
1.966,-7.76604273607773
1.972,-7.74315270859993
1.978,-7.71925621697284
1.984,-7.69424195810949
1.99,-7.66800895683599
1.996,-7.64046538976574
2.002,-7.61152830623379
2.008,-7.5811241049351
2.014,-7.54918966562424
2.02,-7.51567404980231
2.026,-7.48054067608918
2.032,-7.44376984658005
2.038,-7.4053614513621
2.044,-7.36533761241957
2.05,-7.32374495148729
2.056,-7.28065608997865
2.062,-7.2361699297774
2.068,-7.19041024386596
2.074,-7.14352215074873
2.08,-7.09566617881191
2.086,-7.04700985708368
2.092,-6.99771708722107
2.098,-6.94793591983659
2.104,-6.89778571062499
2.11,-6.84734488564192
2.116,-6.79664062303461
2.122,-6.7456416145315
2.128,-6.69450641750787
2.134,-6.64359210974413
2.14,-6.59285028328942
2.146,-6.54236098911828
2.152,-6.49221058420984
2.158,-6.44249199205674
2.164,-6.39330494198564
2.17,-6.34475618030531
2.176,-6.29695964539445
2.182,-6.25003659792607
2.188,-6.20411569652685
2.194,-6.15933300832135
2.2,-6.11583194305856
2.206,-6.07376309891064
2.212,-6.03328400763244
2.218,-5.99455876664229
2.224,-5.95775754580264
2.23,-5.9230559573199
2.236,-5.89063427832297
2.242,-5.86067651738986
2.248,-5.83336931863251
2.254,-5.80890069996256
2.26,-5.78745862586271
2.266,-5.76922941936139
2.272,-5.754396022895
2.278,-5.74313612323646
2.284,-5.73562016151509
2.29,-5.73200925534471
2.296,-5.73245306596027
2.302,-5.73708764874983
2.308,-5.74603333034533
2.314,-5.75939265919138
2.32,-5.77724847895716
2.326,-5.79966217505595
2.332,-5.82667214373538
2.338,-5.85829253065029
2.344,-5.8945122816143
2.35,-5.93529454258005
2.356,-5.98057643921876
2.362,-6.03026925932764
2.368,-6.08425905444349
2.374,-6.14240767143789
2.38,-6.20455422171447
2.386,-6.27051699643592
2.392,-6.34009584293516
2.398,-6.41307503268573
2.404,-6.48922667831745
2.41,-6.56831480043265
2.416,-6.65010020890172
2.422,-6.73434644963353
2.428,-6.82082716555447
2.434,-6.90933527651263
2.44,-6.99969421960237
2.446,-7.0917705915248
2.452,-7.18548452041335
2.458,-7.28080569751625
2.464,-7.37770314777985
2.47,-7.47598188385225
2.476,-7.57492353014725
2.482,-7.67281149624173
2.488,-7.76696306022819
2.494,-7.85510031177232
2.5,-7.93712437681086
2.506,-8.0149060341834
2.512,-8.09047578512564
2.518,-8.16494194434028
2.524,-8.2385658073027
2.53,-8.3111750736652
2.536,-8.38245700135696
2.542,-8.45209416936347
2.548,-8.51981100881375
2.554,-8.58538246573903
2.56,-8.64862971087827
2.566,-8.70941284550192
2.572,-8.7676239832631
2.578,-8.82318156342173
2.584,-8.87602589454381
2.59,-8.92611569860724
2.596,-8.97342540962127
2.602,-9.01794302473965
2.608,-9.05966835681501
2.614,-9.09861158013362
2.62,-9.13479199329232
2.626,-9.16823694629883
2.632,-9.19898089517492
2.638,-9.22706455855463
2.644,-9.25253415848111
2.65,-9.27544073288812
2.656,-9.29583951085888
2.662,-9.31378934420781
2.668,-9.32935219058969
2.674,-9.34259264445458
2.68,-9.35357751290737
2.686,-9.36237543401617
2.692,-9.36905653542805
2.698,-9.37369213135023
2.704,-9.3763544560803
2.71,-9.37711643234832
2.716,-9.37605147278513
2.722,-9.37323331286869
2.728,-9.36873587373107
2.734,-9.36263315323927
2.74,-9.35499914379558
2.746,-9.34590777533973
2.752,-9.3354328820754
2.758,-9.32364819148783
2.764,-9.31062733426593
2.77,-9.29644387379016
2.776,-9.2811713538947
2.782,-9.26488336365785
2.788,-9.24765361801563
2.794,-9.22955605302822
2.8,-9.2106649346561
2.806,-9.19105497991915
2.812,-9.17080148931562
2.818,-9.14998048936725
2.824,-9.1286688841272
2.83,-9.10694461443704
2.836,-9.08488682364271
2.842,-9.06257602837099
2.848,-9.04009429282031
2.854,-9.01752540481943
2.86,-8.99495505163707
2.866,-8.97247099315442
2.872,-8.95016322949249
2.878,-8.92812415943324
2.884,-8.90644872484259
2.89,-8.88523453452795
2.896,-8.86458195804383
2.902,-8.8445941749193
2.908,-8.82537715561517
2.914,-8.80703953290539
2.92,-8.78969228640234
2.926,-8.77344808418312
2.932,-8.75841993825596
2.938,-8.74471833832187
2.944,-8.73244455552972
2.95,-8.72167256695241
2.956,-8.71238807259149
2.962,-8.70418686356571
2.968,-8.69247732953285
2.974,-8.71187733057965
2.98,-8.7040097903945
2.986,-8.70477999546114
2.992,-8.70902732633541
2.998,-8.71632821478858
3.004,-8.7266763792622
3.01,-8.74016028797879
3.016,-8.7568986282649
3.022,-8.77702083582994
3.028,-8.80065938812027
3.034,-8.82794598183035
3.04,-8.85900921158571
3.046,-8.8939729016149
3.052,-8.93295475340906
3.058,-8.97606516654882
3.064,-9.02340617161075
3.07,-9.07507045135241
3.076,-9.13114044440582
3.082,-9.19168753465995
3.088,-9.25677133381073
3.094,-9.32643906625198
3.1,-9.40072506559264
3.106,-9.47965039115919
3.112,-9.56322257120318
3.118,-9.65143547740338
3.124,-9.74426933279818
3.13,-9.84169085265435
3.136,-9.94365351510048
3.142,-10.0500979557467
3.148,-10.1609524780825
3.154,-10.2761336692811
3.16,-10.3955471092175
3.166,-10.5190881590787
3.172,-10.6466428149426
3.178,-10.7780886111434
3.184,-10.9132955581076
3.19,-11.0521270996217
3.196,-11.1944410751327
3.202,-11.3400906736358
3.208,-11.4889253669133
3.214,-11.6407918112839
3.22,-11.7955347085517
3.226,-11.9529976184332
3.232,-12.1130237163471
3.238,-12.275456492012
3.244,-12.4401403857898
3.25,-12.6069213610836
3.256,-12.7764014256417
3.262,-12.9480621929837
3.268,-13.1218131542536
3.274,-13.2975462017978
3.28,-13.4751383421838
3.286,-13.6544543356933
3.292,-13.8353492272361
3.298,-14.0176707391989
3.304,-14.2012615027364
3.31,-14.3859611101117
3.316,-14.57160797662
3.322,-14.7580410061514
3.328,-14.9451010594223
3.334,-15.1326322281988
3.34,-15.3204829224147
3.346,-15.508506779934
3.352,-15.6965634108397
3.358,-15.8845189896215
3.364,-16.0722467095227
3.37,-16.259627113706
3.376,-16.4465483178612
3.382,-16.6329061385102
3.388,-16.8186041406332
3.394,-17.0035536174166
3.4,-17.1876735139724
3.406,-17.3708903058513
3.412,-17.55313784211
3.418,-17.7343571616343
3.424,-17.9144962903856
3.43,-18.0935100262559
3.436,-18.2713597172882
3.442,-18.4480130381635
3.448,-18.6234437690722
3.454,-18.7976315803724
3.46,-18.9705618258032
3.466,-19.1422253464438
3.472,-19.3126182871049
3.478,-19.4817419263859
3.484,-19.6496025212331
3.49,-19.8162111664818
3.496,-19.9815836695508
3.502,-20.1457404401765
3.508,-20.3087063948223
3.514,-20.4705108751702
3.52,-20.6311875798848
3.526,-20.7907745086453
3.532,-20.9493139172489
3.538,-21.1068522824052
3.544,-21.2634402746644
3.55,-21.41913273774
3.556,-21.573988672313
3.562,-21.7280712222243
3.568,-21.8814476607863
3.574,-22.0341893747654
3.58,-22.1863718434169
3.586,-22.3380746097816
3.592,-22.4893812412978
3.598,-22.640379276634
3.604,-22.7911601555261
3.61,-22.9418191283001
3.616,-23.0924551416983
3.622,-23.2431706976048
3.628,-23.3940716812919
3.634,-23.545267155904
3.64,-23.6968691200509
3.646,-23.8489922256302
3.652,-24.0017534533244
3.658,-24.1552717436525
3.664,-24.3096675819834
3.67,-24.4650625365633
3.676,-24.6215787493539
3.682,-24.7793383803299
3.688,-24.938463006837
3.694,-25.0990729806391
3.7,-25.2612867463878
3.706,-25.4252201263831
3.712,-25.5909855776541
3.718,-25.7586914285175
3.724,-25.9284411028531
3.73,-26.1003323413059
3.736,-26.2744564294671
3.742,-26.4508974437336
3.748,-26.6297315259813
3.754,-26.8110261983631
3.76,-26.9948397294407
3.766,-27.1812205624559
3.772,-27.3702068158436
3.778,-27.5618258650844
3.784,-27.7560940137161
3.79,-27.9530162597912
3.796,-28.1525861623426
3.802,-28.3547858105295
3.808,-28.5595858961721
3.814,-28.7669458883803
3.82,-28.9768143070299
3.826,-29.1891290899855
3.832,-29.4038180472891
3.838,-29.6207993940542
3.844,-29.8399823525985
3.85,-30.0612678134096
3.856,-30.2845490439122
3.862,-30.5097124336752
3.868,-30.7366382646654
3.874,-30.9652014953965
3.88,-31.1952725483105
3.886,-31.4267180904324
3.892,-31.659401798209
3.898,-31.8931850984495
3.904,-32.1279278783756
3.91,-32.3634891589316
3.916,-32.5997277266533
3.922,-32.836502720528
3.928,-33.0736741713554
3.934,-33.3111034921281
3.94,-33.5486539188701
3.946,-33.7861909021925
3.952,-34.0235824505336
3.958,-34.2606994266579
3.964,-34.4974157994815
3.97,-34.7336088536802
3.976,-34.9691593598327
3.982,-35.2039517080538
3.988,-35.4378740081974
3.994,-35.6708181597625
4,-35.9026798946287
4.006,-36.1333587956929
4.012,-36.3627582943775
4.018,-36.5907856498531
4.024,-36.8173519126591
4.03,-37.0423718752353
4.036,-37.2657640116883
4.042,-37.4874504089264
4.048,-37.7073566910991
4.054,-37.9254119390854
4.06,-38.141548606583
4.066,-38.3557024341671
4.072,-38.5678123625123
4.078,-38.7778204458023
4.084,-38.9856717661981
4.09,-39.1913143500864
4.096,-39.3946990866956
4.102,-39.5957796495432
4.108,-39.7945124210624
4.114,-39.9908564206547
4.12,-40.1847732363199
4.126,-40.3762269599346
4.132,-40.5651841261721
4.138,-40.7516136549963
4.144,-40.9354867976018
4.15,-41.1167770856263
4.156,-41.29546028342
4.162,-41.4715143431217
4.168,-41.6449193622658
4.174,-41.8156575436245
4.18,-41.9837131569705
4.186,-42.1490725024433
4.192,-42.3117238751911
4.198,-42.4716575309657
4.204,-42.6288656523515
4.21,-42.7833423153198
4.216,-42.93508345581
4.222,-43.0840868360599
4.228,-43.2303520104215
4.234,-43.3738802904261
4.24,-43.5146747088788
4.246,-43.6527399827974
4.252,-43.788082475028
4.258,-43.920710154406
4.264,-44.0506325543523
4.27,-44.1778607298305
4.276,-44.302407212612
4.282,-44.4242859648299
4.288,-44.5435123308276
4.294,-44.6601029873324
4.3,-44.7740758920134
4.306,-44.8854502305017
4.312,-44.9942463619753
4.318,-45.1004857634296
4.324,-45.2041909727702
4.33,-45.3053855308829
4.336,-45.4040939228447
4.342,-45.5003415184518
4.348,-45.5941545122498
4.354,-45.685559863253
4.36,-45.7745852345484
4.366,-45.8612589329747
4.372,-45.9456098490722
4.378,-46.0276673974915
4.384,-46.1074614580472
4.39,-46.1850223175952
4.396,-46.2603806129039
4.402,-46.3335672746829
4.408,-46.4046134729201
4.414,-46.4735505636669
4.42,-46.540410037403
4.426,-46.6052234690954
4.432,-46.6680224700555
4.438,-46.7288386416865
4.444,-46.7877035311979
4.45,-46.8446485893524
4.456,-46.8997051302976
4.462,-46.9529042935223
4.468,-47.004277007965
4.474,-47.0538539582912
4.48,-47.1016655533457
4.486,-47.1477418967736
4.492,-47.1921127597978
4.498,-47.2348075561274
4.504,-47.275855318969
4.51,-47.3152846800985
4.516,-47.3531238509526
4.522,-47.389400605685
4.528,-47.4241422661347
4.534,-47.4573756886432
4.54,-47.4891272526595
4.546,-47.5194228510635
4.552,-47.5482878821392
4.558,-47.5757472431275
4.564,-47.6018253252855
4.57,-47.6265460103781
4.576,-47.6499326685314
4.582,-47.6720081573728
4.588,-47.6927948223848
4.594,-47.7123144984036
4.6,-47.7305885121891
4.606,-47.7476376860005
4.612,-47.7634823421077
4.618,-47.7781423081761
4.624,-47.7916369234593
4.63,-47.8039850457421
4.636,-47.8152050589725
4.642,-47.8253148815293
4.648,-47.8343319750708
4.654,-47.8422733539147
4.66,-47.8491555949004
4.666,-47.854994847689
4.672,-47.8598068454581
4.678,-47.8636069159504
4.684,-47.8664099928397
4.69,-47.8682306273774
4.696,-47.8690830002883
4.702,-47.8689809338842
4.708,-47.8679379043674
4.714,-47.8659670542986
4.72,-47.863081205205
4.726,-47.8592928703064
4.732,-47.8546142673414
4.738,-47.8490573314732
4.744,-47.8426337282615
4.75,-47.8353548666844
4.756,-47.8272319121985
4.762,-47.8182757998261
4.768,-47.8084972472589
4.774,-47.797906767972
4.78,-47.7865146843384
4.786,-47.7743311407404
4.792,-47.761366116673
4.798,-47.7476294398347
4.804,-47.7331307992042
4.81,-47.7178797581007
4.816,-47.7018857672277
4.822,-47.6851581777001
4.828,-47.6677062540537
4.834,-47.6495391872416
4.84,-47.6306661076169
4.846,-47.6110960979038
4.852,-47.5908382061629
4.858,-47.5699014587507
4.864,-47.5482948732779
4.87,-47.5260274715717
4.876,-47.503108292644
4.882,-47.4795464056708
4.888,-47.4553509229861
4.894,-47.430531013096
4.9,-47.4050959137148
4.906,-47.3790549448293
4.912,-47.3524175217928
4.918,-47.3251931684543
4.924,-47.2973915303236
4.93,-47.2690223877775
4.936,-47.2400956693064
4.942,-47.2106214648048
4.948,-47.1806100389049
4.954,-47.1500718443545
4.96,-47.1190175354368
4.966,-47.0874579814311
4.972,-47.0554042801107
4.978,-47.0228677712733
4.984,-46.9898600503003
4.99,-46.9563929817336
4.996,-46.9224787128661
5.002,-46.8881296873315
5.008,-46.8533586586832
5.014,-46.8181787039479
5.02,-46.7826032371356
5.026,-46.7466460226904
5.032,-46.7103211888586
5.038,-46.6736432409503
5.044,-46.636627074471
5.05,-46.5992879880901
5.056,-46.5616416964171
5.062,-46.5237043425485
5.068,-46.4854925103473
5.074,-46.4470232364132
5.08,-46.4083140216966
5.086,-46.3693828427089
5.092,-46.3302481622747
5.098,-46.2909289397687
5.104,-46.2514446407774
5.11,-46.2118152461196
5.116,-46.1720612601575
5.122,-46.1322037183243
5.128,-46.0922641937928
5.134,-46.0522648032026
5.14,-46.0122282113618
5.146,-45.9721776348349
5.152,-45.9321368443249
5.158,-45.892130165754
5.164,-45.8521824799463
5.17,-45.8123192208106
5.176,-45.7725663719217
5.182,-45.7329504613964
5.188,-45.693498554959
5.194,-45.6542382470912
5.2,-45.6151976501617
5.206,-45.5764053814338
5.212,-45.5378905478475
5.218,-45.4996827284811
5.224,-45.4618119545981
5.23,-45.4243086871916
5.236,-45.387203791946
5.242,-45.3505285115432
5.248,-45.3143144352506
5.254,-45.2785934657378
5.26,-45.2433977830835
5.266,-45.2087598059454
5.272,-45.1747121498834
5.278,-45.1412875828421
5.284,-45.1085189778156
5.29,-45.0764392627404
5.296,-45.0450813676801
5.302,-45.014478169388
5.308,-44.9846624333576
5.314,-44.9556667534948
5.32,-44.9275234895681
5.326,-44.9002647026212
5.332,-44.8739220885536
5.338,-44.8485269101036
5.344,-44.8241099274879
5.35,-44.8007013279813
5.356,-44.7783306547359
5.362,-44.7570267351677
5.368,-44.7368176092505
5.374,-44.7177304580791
5.38,-44.6997915330781
5.386,-44.6830260862399
5.392,-44.6674583017912
5.398,-44.6531112296859
5.404,-44.6400067213283
5.41,-44.6281653679262
5.416,-44.617606441868
5.422,-44.6083478415069
5.428,-44.6004060397215
5.434,-44.5937960366028
5.44,-44.5885313165963
5.446,-44.5846238103999
5.452,-44.582083861889
5.458,-44.5809202003086
5.464,-44.5811399179323
5.47,-44.5827484533541
5.476,-44.585749580534
5.482,-44.5901454036788
5.488,-44.5959363579955
5.494,-44.6031212163101
5.5,-44.6116971015024
5.506,-44.6177427151861
5.512,-44.6233182194374
5.518,-44.6284230863564
5.524,-44.6330570072019
5.53,-44.6372198969721
5.536,-44.6409118989577
5.542,-44.6441333892736
5.548,-44.6468849813766
5.554,-44.6491675305789
5.56,-44.6509821385663
5.566,-44.6523301579328
5.572,-44.6532131967451
5.578,-44.6536331231499
5.584,-44.6535920700403
5.59,-44.6530924397994
5.596,-44.6521369091375
5.602,-44.6507284340459
5.608,-44.6488702548878
5.614,-44.6465659016499
5.62,-44.6438191993814
5.626,-44.6406342738463
5.632,-44.6370155574184
5.638,-44.6329677952506
5.644,-44.628496051749
5.65,-44.6236057173884
5.656,-44.6183025159029
5.662,-44.6125925118911
5.668,-44.6064821188731
5.674,-44.5999781078416
5.68,-44.5930876163479
5.686,-44.5858181581658
5.692,-44.5781776335779
5.698,-44.5701743403276
5.704,-44.5618169852833
5.71,-44.5531146968572
5.716,-44.5440770382243
5.722,-44.5347140213837
5.728,-44.5250361221025
5.734,-44.5150542957811
5.74,-44.5047799942729
5.746,-44.4942251836891
5.752,-44.4834023632101
5.758,-44.4723245849202
5.764,-44.4610054746696
5.77,-44.4494592539591
5.776,-44.4377007628268
5.782,-44.4257454837003
5.788,-44.4136095661569
5.794,-44.4013098525137
5.8,-44.3888639041387
5.806,-44.376290028345
5.812,-44.3636073056926
5.818,-44.35083561748
5.824,-44.3379956731598
5.83,-44.3251090373581
5.836,-44.3121981561136
5.842,-44.2992863818855
5.848,-44.2863979967974
5.854,-44.273558233499
5.86,-44.2607932929326
5.866,-44.2481303581813
5.872,-44.2355976034669
5.878,-44.2232241972348
5.884,-44.211040298138
5.89,-44.1990770425873
5.896,-44.1873665223936
5.902,-44.175941750881
5.908,-44.1648366157007
5.914,-44.154085816437
5.92,-44.1437247849647
5.926,-44.1337895864013
5.932,-44.1243167984152
5.938,-44.1153433665919
5.944,-44.1069064335599
5.95,-44.0990431396291
5.956,-44.0917903928232
5.962,-44.0851846064057
5.968,-44.0792614023218
5.974,-44.0740552794246
5.98,-44.0695992459364
5.986,-44.0659244163329
5.992,-44.0630595737343
5.998,-44.0610306999553
6.004,-44.0598604765985
6.01,-44.059567761972
6.016,-44.0601670501427
6.022,-44.0616679200749
6.028,-44.0640744845086
6.034,-44.0673848499241
6.04,-44.0715906005679
6.046,-44.076676320961
6.052,-44.0826191724986
