"Freq [GHz]","dB(St(1,6)) []"
1,-5.67849998639013
1.006,-6.55467200922521
1.012,-7.41909898948537
1.018,-8.27894678505778
1.024,-9.12925209076043
1.03,-9.94953017442675
1.036,-10.703524791889
1.042,-11.3461145977712
1.048,-11.8385638050909
1.054,-12.1654907706501
1.06,-12.3416597591553
1.066,-12.4037068327915
1.072,-12.3946123398198
1.078,-12.3516134572812
1.084,-12.3013943139235
1.09,-12.2604502201705
1.096,-12.2374398115699
1.102,-12.2356045675713
1.108,-12.2545826312048
1.114,-12.2915815789375
1.12,-12.3420864788192
1.126,-12.4003041536522
1.132,-12.4595103795402
1.138,-12.5124197069496
1.144,-12.5516460003093
1.15,-12.5702640343052
1.156,-12.5624217017721
1.162,-12.523902244768
1.168,-12.4525167369717
1.174,-12.3482329552922
1.18,-12.2130121116292
1.186,-12.0504025080875
1.192,-11.8649952238016
1.198,-11.6618614020985
1.204,-11.4460666719488
1.21,-11.2223148257118
1.216,-10.9947307622304
1.222,-10.7667640889903
1.228,-10.5411819096699
1.234,-10.3201183685625
1.24,-10.105154037696
1.246,-9.89740582593803
1.252,-9.69761518191362
1.258,-9.50622788547199
1.264,-9.32346252739866
1.27,-9.14936713810979
1.276,-8.98386473256087
1.282,-8.82678914737958
1.288,-8.67791273139384
1.294,-8.53696740176078
1.3,-8.40366041591538
1.306,-8.2776860066702
1.312,-8.15873382371513
1.318,-8.04649493903602
1.324,-7.94066601413187
1.33,-7.84095209461521
1.336,-7.74706839085759
1.342,-7.65874131846433
1.348,-7.57570900588541
1.354,-7.49772142494059
1.36,-7.42454026042611
1.366,-7.35593860473181
1.372,-7.29170054045374
1.378,-7.23162065667582
1.384,-7.17550353160407
1.39,-7.12316320454537
1.396,-7.07442265303772
1.402,-7.02911328564974
1.408,-6.98707445710821
1.414,-6.94815300962594
1.42,-6.91220284231812
1.426,-6.87908450920761
1.432,-6.84866484537287
1.438,-6.82081662016964
1.444,-6.79541821607004
1.45,-6.77235333144568
1.456,-6.75151070552404
1.462,-6.7327838637342
1.468,-6.71607088170098
1.474,-6.70127416622691
1.48,-6.68830025170369
1.486,-6.67705961050929
1.492,-6.66746647606579
1.498,-6.65943867735195
1.504,-6.65289748377918
1.51,-6.64776745944859
1.516,-6.64397632590834
1.522,-6.64145483262414
1.528,-6.64013663446135
1.534,-6.63995817555462
1.54,-6.64085857901049
1.546,-6.64277954195131
1.552,-6.64566523546388
1.558,-6.64946220906619
1.564,-6.65411929934904
1.57,-6.65958754248809
1.576,-6.66582009035586
1.582,-6.67277212999319
1.588,-6.6804008062258
1.594,-6.68866514723469
1.6,-6.69752599290934
1.606,-6.70694592583004
1.612,-6.71688920474156
1.618,-6.72732170039353
1.624,-6.7382108336348
1.63,-6.74952551565953
1.636,-6.76123609031183
1.642,-6.77331427836355
1.648,-6.78573312368732
1.654,-6.79846694125265
1.66,-6.81149126687892
1.666,-6.8247828086839
1.672,-6.83831940017089
1.678,-6.85207995490216
1.684,-6.86604442270992
1.69,-6.88019374740031
1.696,-6.89450982590975
1.702,-6.90897546887718
1.708,-6.92357436260083
1.714,-6.93829103235351
1.72,-6.95311080703814
1.726,-6.96801978517476
1.732,-6.98300480222392
1.738,-6.99805339927123
1.744,-7.01315379312738
1.75,-7.0282948479441
1.756,-7.04346604852005
1.762,-7.05865747559232
1.768,-7.0738597836165
1.774,-7.08906418190597
1.78,-7.10426242067859
1.786,-7.11944678487017
1.792,-7.13461010125205
1.798,-7.14974577022815
1.804,-7.16484784745438
1.81,-7.17991123621667
1.816,-7.19493215694258
1.822,-7.20990942741063
1.828,-7.22484871316721
1.834,-7.23978253670428
1.84,-7.2549824167541
1.846,-7.2677734193715
1.852,-7.28325198052007
1.858,-7.29792366969849
1.864,-7.31243179846262
1.87,-7.32682856232504
1.876,-7.34112513571115
1.882,-7.35532400225108
1.888,-7.36942497171399
1.894,-7.38342687795877
1.9,-7.39732818320597
1.906,-7.41112722687468
1.912,-7.42482233799871
1.918,-7.43841188863812
1.924,-7.45189431938663
1.93,-7.46526815075865
1.936,-7.4785319870601
1.942,-7.4916845161134
1.948,-7.50472450664903
1.954,-7.51765080438113
1.96,-7.53046232735901
1.966,-7.54315806094927
1.972,-7.55573705266586
1.978,-7.56819840698343
1.984,-7.58054128021918
1.99,-7.59276487553676
1.996,-7.60486843810558
2.002,-7.61685125043565
2.008,-7.62871262789912
2.014,-7.6404519144441
2.02,-7.65206847850197
2.026,-7.66356170908703
2.032,-7.67493101208513
2.038,-7.68617580672692
2.044,-7.69729552224032
2.05,-7.70828959467639
2.056,-7.71915746390227
2.062,-7.72989857075484
2.068,-7.74051235434853
2.074,-7.75099824953057
2.08,-7.76135568447751
2.086,-7.77158407842617
2.092,-7.78168283953289
2.098,-7.79165136285501
2.104,-7.80148902844814
2.11,-7.8111951995738
2.116,-7.82076922101131
2.122,-7.83021041746857
2.128,-7.83951809208633
2.134,-7.84869152503062
2.14,-7.85772997216848
2.146,-7.86663266382191
2.152,-7.87539880359544
2.158,-7.88402756727282
2.164,-7.89251810177831
2.17,-7.90086952419845
2.176,-7.90908092086025
2.182,-7.91715134646173
2.188,-7.92507982325127
2.194,-7.93286534025188
2.2,-7.9405068525271
2.206,-7.94800328048503
2.212,-7.95535350921736
2.218,-7.96255638787019
2.224,-7.96961072904366
2.23,-7.97651530821764
2.236,-7.98326886320053
2.242,-7.98987009359869
2.248,-7.99631766030373
2.254,-8.00261018499546
2.26,-8.00874624965799
2.266,-8.01472439610665
2.272,-8.02054312552371
2.278,-8.02620089800072
2.284,-8.0316961320854
2.29,-8.03702720433126
2.296,-8.04219244884793
2.302,-8.04719015685053
2.308,-8.05201857620627
2.314,-8.0566759109766
2.32,-8.06116032095335
2.326,-8.06546992118723
2.332,-8.06960278150724
2.338,-8.07355692602941
2.344,-8.0773303326537
2.35,-8.08092093254738
2.356,-8.08432660961377
2.362,-8.08754519994501
2.368,-8.0905744912575
2.374,-8.09341222230891
2.38,-8.09605608229551
2.386,-8.09850371022857
2.392,-8.10075269428882
2.398,-8.10280057115772
2.404,-8.10464482532457
2.41,-8.10628288836817
2.416,-8.10771213821217
2.422,-8.10892989835288
2.428,-8.10993343705858
2.434,-8.11071996653931
2.44,-8.11128664208593
2.446,-8.11163056117769
2.452,-8.11174876255702
2.458,-8.11163822527069
2.464,-8.1112958676762
2.47,-8.11071854641247
2.476,-8.10990305533366
2.482,-8.10884612440529
2.488,-8.10754441856129
2.494,-8.10599453652133
2.5,-8.10419300956698
2.506,-8.10213630027586
2.512,-8.09982080121271
2.518,-8.09724283357597
2.524,-8.09439864579925
2.53,-8.09128441210607
2.536,-8.08789623101708
2.542,-8.08423012380837
2.548,-8.08028203291985
2.554,-8.07604782031234
2.56,-8.07152326577235
2.566,-8.06670406516315
2.572,-8.0615858286209
2.578,-8.05616407869474
2.584,-8.05043424842927
2.59,-8.0443916793884
2.596,-8.03803161961904
2.602,-8.03134922155343
2.608,-8.0243395398487
2.614,-8.01699752916228
2.62,-8.00931804186192
2.626,-8.00129582566876
2.632,-7.99292552123224
2.638,-7.98420165963538
2.644,-7.9751186598291
2.65,-7.96567082599414
2.656,-7.95585234482938
2.662,-7.94565728276508
2.668,-7.9350795830998
2.674,-7.92411306305975
2.68,-7.91275141077926
2.686,-7.90098818220136
2.692,-7.88881679789714
2.698,-7.87623053980306
2.704,-7.86322254787513
2.71,-7.84978581665922
2.716,-7.83591319177666
2.722,-7.82159736632473
2.728,-7.8068308771915
2.734,-7.79160610128477
2.74,-7.77591525167534
2.746,-7.75975037365451
2.752,-7.7431033407066
2.758,-7.72596585039725
2.764,-7.70832942017859
2.77,-7.69018538311303
2.776,-7.67152488351762
2.782,-7.65233887253159
2.788,-7.63261810361015
2.794,-7.61235312794839
2.8,-7.59153428983982
2.806,-7.57015172197467
2.812,-7.54819534068449
2.818,-7.52565484113998
2.824,-7.50251969251062
2.83,-7.47877913309568
2.836,-7.45442216543765
2.842,-7.42943755143077
2.848,-7.40381380743908
2.854,-7.3775391994402
2.86,-7.35060173821377
2.866,-7.32298917459503
2.872,-7.29468899481786
2.878,-7.26568841597361
2.884,-7.2359743816161
2.89,-7.20553355754671
2.896,-7.17435232781767
2.902,-7.14241679099641
2.908,-7.10971275673899
2.914,-7.07622574272656
2.92,-7.04194097202507
2.926,-7.00684337093596
2.932,-6.97091756741334
2.938,-6.93414789013223
2.944,-6.89651836830257
2.95,-6.85801273233456
2.956,-6.81861441547356
2.962,-6.77830655653639
2.968,-6.73707200389665
2.974,-6.69489332088321
2.98,-6.65175279277605
2.986,-6.60763243560418
2.992,-6.56251400697469
2.998,-6.51637901918832
3.004,-6.46920875492653
3.01,-6.42098428582806
3.016,-6.37168649430968
3.022,-6.32129609902673
3.028,-6.26979368441481
3.034,-6.21715973480438
3.04,-6.16337467365708
3.046,-6.1084189085348
3.052,-6.05227288248317
3.058,-5.99491713258809
3.064,-5.93633235655073
3.07,-5.87649948822181
3.076,-5.81539978314202
3.082,-5.75301491525263
3.088,-5.68932708607012
3.094,-5.62431914776111
3.1,-5.5579747417113
3.106,-5.49027845435447
3.112,-5.42121599221616
3.118,-5.35077437833228
3.124,-5.27894217242629
3.13,-5.20570971746939
3.136,-5.13106941550697
3.142,-5.0550160359101
3.148,-4.97754705950198
3.154,-4.89866306231243
3.16,-4.81836814302582
3.166,-4.73667039850259
3.172,-4.65358245206344
3.178,-4.5691220395177
3.184,-4.48331265817805
3.19,-4.39618428431304
3.196,-4.30777416462228
3.202,-4.21812768734437
3.208,-4.12729933848464
3.214,-4.03535374832955
3.22,-3.94236683283548
3.226,-3.84842703356997
3.232,-3.75363665855317
3.238,-3.65811332449836
3.244,-3.56199149846022
3.25,-3.46542413364196
3.256,-3.36839421209699
3.262,-3.27124212043809
3.268,-3.17418172370178
3.274,-3.07745216134824
3.28,-2.98131971840954
3.286,-2.88607964865102
3.292,-2.79205789275862
3.298,-2.69961262145408
3.304,-2.60913551929658
3.31,-2.52105271028065
3.316,-2.43582521199227
3.322,-2.35394879216846
3.328,-2.2759530915087
3.334,-2.20239987135779
3.34,-2.13388024657099
3.346,-2.07101077482248
3.352,-2.01442829613339
3.358,-1.96478345244242
3.364,-1.92273286783805
3.37,-1.88893003561642
3.376,-1.86401503694233
3.382,-1.84860330383088
3.388,-1.84327373047745
3.394,-1.84855652364133
3.4,-1.8649212553839
3.406,-1.89276563011714
3.412,-1.93240549376572
3.418,-1.98406658956616
3.424,-2.04787850026439
3.43,-2.12387111277463
3.436,-2.21197380635491
3.442,-2.31201741101982
3.448,-2.4237388240242
3.454,-2.54678802425505
3.46,-2.68073710111491
3.466,-2.82509082628824
3.472,-2.9792982492098
3.478,-3.14276479054257
3.484,-3.31486433837456
3.49,-3.49495091159572
3.496,-3.68236953455317
3.502,-3.87646605676508
3.508,-4.07659574224799
3.514,-4.28213053768044
3.52,-4.49246500214794
3.526,-4.70702094074064
3.532,-4.92525082887195
3.538,-5.14664014442102
3.544,-5.37070874225294
3.55,-5.59701141249361
3.556,-5.82513776247894
3.562,-6.05471155484689
3.568,-6.28538962282726
3.574,-6.51686047011438
3.58,-6.74884264811676
3.586,-6.98108298885757
3.592,-7.21335475803395
3.598,-7.44545578016134
3.604,-7.67720657656105
3.61,-7.90844854727949
3.616,-8.13904221983233
3.622,-8.36886558085989
3.628,-8.59781250122999
3.634,-8.8257912606863
3.64,-9.05272317465815
3.646,-9.27854132317783
3.652,-9.50318937985441
3.658,-9.7266205374079
3.664,-9.94879652526748
3.67,-10.1696867140902
3.676,-10.3892673016846
3.682,-10.6075205746646
3.688,-10.8244342401582
3.694,-11.0400008220109
3.7,-11.2542171161249
3.706,-11.4670836998306
3.712,-11.6786044904754
3.718,-11.8887863487312
3.724,-12.0976387224348
3.73,-12.305173327098
3.736,-12.5114038595301
3.742,-12.7163457413168
3.748,-12.9200158891784
3.754,-13.1224325095015
3.76,-13.323614914581
3.766,-13.5235833583453
3.772,-13.7223588895456
3.778,-13.919963220589
3.784,-14.1164186103726
3.79,-14.3117477596408
3.796,-14.5059737175348
3.802,-14.6991197981413
3.808,-14.8912095059696
3.814,-15.0822664693964
3.82,-15.2723143812223
3.826,-15.4613769455708
3.832,-15.6494778304477
3.838,-15.8366406253506
3.844,-16.022888803387
3.85,-16.2082456874203
3.856,-16.3927344198181
3.862,-16.5763779354264
3.868,-16.7591989374379
3.874,-16.9412198758644
3.88,-17.1224629283571
3.886,-17.3029499831526
3.892,-17.4827026239516
3.898,-17.6617421165625
3.904,-17.8400893971662
3.91,-18.0177650620779
3.916,-18.1947893589015
3.922,-18.3711821789864
3.928,-18.5469630511124
3.934,-18.7221511363387
3.94,-18.8967652239649
3.946,-19.0708237285595
3.952,-19.2443446880198
3.958,-19.4173457626318
3.964,-19.5898442351051
3.97,-19.7618570115583
3.976,-19.9334006234375
3.982,-20.1044912303469
3.988,-20.2751446237748
3.994,-20.4453762316972
4,-20.6152011240384
4.006,-20.7846340189713
4.012,-20.9536892900321
4.018,-21.1223809740275
4.024,-21.2907227797056
4.03,-21.4587280971614
4.036,-21.6264100079446
4.042,-21.7937812958309
4.048,-21.9608544582205
4.054,-22.1276417181191
4.06,-22.2941550366562
4.066,-22.4604061260911
4.072,-22.6264064632566
4.078,-22.7921673033838
4.084,-22.957699694252
4.09,-23.123014490605
4.096,-23.2881223687714
4.102,-23.4530338414267
4.108,-23.6177592724328
4.114,-23.7823088916883
4.12,-23.9466928099237
4.126,-24.1109210333741
4.132,-24.2750034782598
4.138,-24.4389499850082
4.144,-24.6027703321463
4.15,-24.766474249795
4.156,-24.9300714326968
4.162,-25.0935715527058
4.168,-25.2569842706703
4.174,-25.4203192476391
4.18,-25.5835861553196
4.186,-25.7467946857154
4.192,-25.9099545598744
4.198,-26.0730755356699
4.204,-26.2361674145434
4.21,-26.3992400471297
4.216,-26.5623033376867
4.222,-26.7253672472488
4.228,-26.8884417954166
4.234,-27.0515370606968
4.24,-27.2146631792986
4.246,-27.3778303422878
4.252,-27.5410487909968
4.258,-27.7043288105801
4.264,-27.8676807215998
4.27,-28.031114869516
4.276,-28.1946416119512
4.282,-28.3582713035872
4.288,-28.5220142785434
4.294,-28.6858808300752
4.3,-28.8498811874195
4.306,-29.0140254896036
4.312,-29.1783237560186
4.318,-29.342785853547
4.324,-29.5074214600192
4.33,-29.672240023759
4.336,-29.8372507189613
4.342,-30.0024623966328
4.348,-30.167883530805
4.354,-30.333522159717
4.36,-30.4993858216457
4.366,-30.6654814850454
4.372,-30.8318154726413
4.378,-30.9983933791075
4.384,-31.1652199819418
4.39,-31.3322991451379
4.396,-31.4996337152438
4.402,-31.6672254093822
4.408,-31.8350746948046
4.414,-32.003180659546
4.42,-32.1715408737469
4.426,-32.3401512412179
4.432,-32.5090058408318
4.438,-32.6780967573519
4.444,-32.8474139013326
4.45,-33.0169448177701
4.456,-33.1866744832337
4.462,-33.3565850912785
4.468,-33.5266558260226
4.474,-33.6968626238776
4.48,-33.8671779235513
4.486,-34.0375704045864
4.492,-34.2080047148866
4.498,-34.3784411878866
4.504,-34.5488355502695
4.51,-34.7191386214174
4.516,-34.8892960061012
4.522,-35.0592477822824
4.528,-35.228928186303
4.534,-35.3982652981986
4.54,-35.5671807303632
4.546,-35.7355893233388
4.552,-35.9033988530818
4.558,-36.0705097546784
4.564,-36.2368148681191
4.57,-36.4021992124046
4.576,-36.5665397949108
4.582,-36.7297054635836
4.588,-36.8915568101351
4.594,-37.0519461329517
4.6,-37.2107174688681
4.606,-37.3677067032874
4.612,-37.5227417682959
4.618,-37.6756429384165
4.624,-37.826223233437
4.63,-37.9742889373384
4.636,-38.1196402417351
4.642,-38.2620720214728
4.648,-38.4013747491807
4.654,-38.5373355547838
4.66,-38.6697394354558
4.666,-38.79837062156
4.672,-38.9230141052258
4.678,-39.0434573410309
4.684,-39.1594921336907
4.69,-39.27091673705
4.696,-39.3775382038572
4.702,-39.479175049458
4.708,-39.575660328521
4.714,-39.666845277858
4.72,-39.7526037587269
4.726,-39.8328378513791
4.732,-39.9074851323843
4.738,-39.9765284313519
4.744,-40.0400092648185
4.75,-40.098046755106
4.756,-40.1508647782933
4.762,-40.1988315361199
4.768,-40.2425180133541
4.774,-40.282785347719
4.78,-40.3209167665243
4.786,-40.3588186005603
4.792,-40.3993286382112
4.798,-40.4466907215901
4.804,-40.5072831078801
4.81,-40.5907204049027
4.816,-40.7114613629357
4.822,-40.8909686235281
4.828,-41.1600686819158
4.834,-41.5599919600081
4.84,-42.1379950195132
4.846,-42.9296821385867
4.852,-43.9194048121817
4.858,-44.9853684231097
4.864,-45.8843263877289
4.87,-46.3701946027769
4.876,-46.390509077861
4.882,-46.0957781834388
4.888,-45.6696202059206
4.894,-45.2275155903292
4.9,-44.8201187831723
4.906,-44.4624437071913
4.912,-44.1541786335706
4.918,-43.8896849912078
4.924,-43.6622168202597
4.93,-43.4654898790652
4.936,-43.2941429129138
4.942,-43.1437704017348
4.948,-43.0108100877692
4.954,-42.892397893655
4.96,-42.7862315056441
4.966,-42.6904549456539
4.972,-42.6035652994295
4.978,-42.5243389556201
4.984,-42.4517738290286
4.99,-42.3850442437062
4.996,-42.3234656813468
5.002,-42.2664671628962
5.008,-42.213569524777
5.014,-42.1643682520189
5.02,-42.1185198443527
5.026,-42.0757309323346
5.032,-42.0357495439567
5.038,-41.9983580612591
5.044,-41.9633675118432
5.05,-41.9306129202085
5.056,-41.8999495047842
5.062,-41.8712495531201
5.068,-41.8443998435009
5.074,-41.8192995088644
5.08,-41.7958582603295
5.086,-41.7739949043349
5.092,-41.7536361004689
5.098,-41.7347153173671
5.104,-41.7171719521969
5.11,-41.7009505857208
5.116,-41.6860003500962
5.122,-41.6722743907114
5.128,-41.659729406697
5.134,-41.6483252574428
5.14,-41.6380246246471
5.146,-41.6287927212042
5.152,-41.6205970396953
5.158,-41.6134071344479
5.164,-41.6071944321114
5.17,-41.6019320665105
5.176,-41.5975947342147
5.182,-41.5941585678185
5.188,-41.5916010243974
5.194,-41.5899007869903
5.2,-41.5890376772888
5.206,-41.5889925779846
5.212,-41.5897473634582
5.218,-41.5912848376864
5.224,-41.5935886784078
5.23,-41.5966433867267
5.236,-41.6004342414519
5.242,-41.6049472575673
5.248,-41.6101691483161
5.254,-41.6160872904519
5.26,-41.6226896922738
5.266,-41.6299649641124
5.272,-41.637902290982
5.278,-41.6464914071496
5.284,-41.655722572408
5.29,-41.665586549865
5.296,-41.6760745850887
5.302,-41.6871783864667
5.308,-41.6988901066583
5.314,-41.711202325032
5.32,-41.724108030994
5.326,-41.7376006081278
5.332,-41.7516738190719
5.338,-41.7663217910717
5.344,-41.7815390021523
5.35,-41.7973202678605
5.356,-41.8136607285338
5.362,-41.830555837058
5.368,-41.8480013470772
5.374,-41.8659933016274
5.38,-41.8845280221641
5.386,-41.9036020979601
5.392,-41.9232123758503
5.398,-41.9433559503025
5.404,-41.964030153796
5.41,-41.9852325474904
5.416,-42.0069609121675
5.422,-42.0292132394332
5.428,-42.0519877231634
5.434,-42.0752827511822
5.44,-42.0990968971588
5.446,-42.1234289127122
5.452,-42.1482777197112
5.458,-42.1736424027593
5.464,-42.1995222018542
5.47,-42.2259165052105
5.476,-42.2528248422362
5.482,-42.2802468766527
5.488,-42.3081823997485
5.494,-42.3366313237567
5.5,-42.3655936753464
5.506,-42.390432948631
5.512,-42.4147599520833
5.518,-42.4386789945164
5.524,-42.4622824862616
5.53,-42.4856520756143
5.536,-42.5088596918154
5.542,-42.5319684993891
5.548,-42.555033769142
5.554,-42.5781036713826
5.56,-42.6012199969837
5.566,-42.6244188118518
5.572,-42.6477310502013
5.578,-42.6711830518096
5.584,-42.6947970481529
5.59,-42.7185916020315
5.596,-42.7425820049804
5.602,-42.7667806364539
5.608,-42.7911972884639
5.614,-42.8158394590618
5.62,-42.8407126177675
5.626,-42.86582044579
5.632,-42.8911650536335
5.638,-42.9167471784561
5.644,-42.942566363338
5.65,-42.9686211204214
5.656,-42.9949090797123
5.662,-43.0214271251713
5.668,-43.0481715195792
5.674,-43.075138019534
5.68,-43.102321981818
5.686,-43.1297184622737
5.692,-43.1573223082306
5.698,-43.1851282454497
5.704,-43.2131309604756
5.71,-43.2413251792282
5.716,-43.2697057426084
5.722,-43.2982676798473
5.728,-43.3270062802897
5.734,-43.355917164266
5.74,-43.3849963536833
5.746,-43.4142403429386
5.752,-43.4436461707451
5.758,-43.4732114934435
5.764,-43.5029346603627
5.77,-43.5328147917879
5.776,-43.562851860087
5.782,-43.5930467745446
5.788,-43.6234014704537
5.794,-43.6539190030113
5.8,-43.6846036465647
5.806,-43.7154609997521
5.812,-43.7464980970808
5.818,-43.7777235274704
5.824,-43.809147560286
5.83,-43.8407822793581
5.836,-43.8726417254648
5.842,-43.9047420477101
5.848,-43.9371016641826
5.854,-43.969741432212
5.86,-44.0026848284508
5.866,-44.0359581389046
5.872,-44.0695906588908
5.878,-44.1036149027417
5.884,-44.1380668228573
5.89,-44.1729860374687
5.896,-44.2084160661677
5.902,-44.244404571914
5.908,-44.2810036078068
5.914,-44.3182698664318
5.92,-44.3562649290323
5.926,-44.3950555111178
5.932,-44.4347137004007
5.938,-44.4753171821472
5.944,-44.5169494461306
5.95,-44.5596999684051
5.956,-44.6036643600663
5.962,-44.6489444740602
5.968,-44.6956484599582
5.974,-44.7438907554659
5.98,-44.7937920023229
5.986,-44.8454788732195
5.992,-44.8990837954868
5.998,-44.9547445566716
6.004,-45.0126037767884
6.01,-45.0728082321399
6.016,-45.1355080162418
6.022,-45.2008555246724
6.028,-45.2690042527284
6.034,-45.3401073976939
6.04,-45.4143162614149
6.046,-45.491778453765
6.052,-45.5726359034923
