"Freq [GHz]","dB(St(6,6)) []"
1,-9.73066663867017
1.006,-8.81393459524984
1.012,-7.97345975433602
1.018,-7.19021151213137
1.024,-6.46015493386725
1.03,-5.7888907209283
1.036,-5.18589296989558
1.042,-4.65955184060924
1.048,-4.21400582101325
1.054,-3.84811989501816
1.06,-3.5562188418023
1.066,-3.3297443303934
1.072,-3.15902304542792
1.078,-3.03464602341316
1.084,-2.948304897342
1.09,-2.89315256920971
1.096,-2.86383718305624
1.102,-2.85635160893072
1.108,-2.86780095169612
1.114,-2.8961501379831
1.12,-2.93998419014752
1.126,-2.99829608885267
1.132,-3.07030798719685
1.138,-3.15532744947652
1.144,-3.25263868234335
1.15,-3.3614277607988
1.156,-3.48073982777229
1.162,-3.6094649697582
1.168,-3.74634811382014
1.174,-3.89001717320139
1.18,-4.03902308054365
1.186,-4.19188543752283
1.192,-4.34713824761264
1.198,-4.50337140932749
1.204,-4.65926508211856
1.21,-4.81361545128878
1.216,-4.9653516263208
1.222,-5.11354430639368
1.228,-5.25740741393291
1.234,-5.39629416589366
1.24,-5.52968908897013
1.246,-5.65719736399689
1.252,-5.77853267504164
1.258,-5.89350449431228
1.264,-6.00200549275249
1.27,-6.10399955080795
1.276,-6.19951066521678
1.282,-6.28861290844581
1.288,-6.37142149506927
1.294,-6.4480849387955
1.3,-6.51877823883953
1.306,-6.58369700885225
1.312,-6.64305245025321
1.318,-6.69706707010248
1.324,-6.74597104807347
1.33,-6.78999916502738
1.336,-6.8293882152702
1.342,-6.86437483453155
1.348,-6.89519368524504
1.354,-6.92207594938052
1.36,-6.94524808667142
1.366,-6.96493082254547
1.372,-6.98133833546125
1.378,-6.99467761778485
1.384,-7.00514798794719
1.39,-7.0129407345463
1.396,-7.01823887543121
1.402,-7.02121701674623
1.408,-7.02204129852473
1.414,-7.02086941478366
1.42,-7.01785069724584
1.426,-7.01312625285735
1.432,-7.00682914620522
1.438,-6.99908461880212
1.444,-6.99001033800583
1.45,-6.9797166690916
1.456,-6.96830696470164
1.462,-6.95587786656032
1.468,-6.94251961496667
1.474,-6.92831636215898
1.48,-6.91334648618732
1.486,-6.89768290242948
1.492,-6.8813933703445
1.498,-6.86454079347383
1.504,-6.8471835110767
1.51,-6.82937558012248
1.516,-6.8111670466614
1.522,-6.79260420585755
1.528,-6.77372985019704
1.534,-6.75458350558151
1.54,-6.73520165518577
1.546,-6.71561795110067
1.552,-6.69586341390041
1.558,-6.6759666203709
1.564,-6.65595387971335
1.57,-6.63584939859897
1.576,-6.61567543549694
1.582,-6.59545244473204
1.588,-6.57519921075119
1.594,-6.55493297309198
1.6,-6.53466954255221
1.606,-6.51442340905908
1.612,-6.49420784173052
1.618,-6.47403498161125
1.624,-6.45391592755249
1.63,-6.43386081568809
1.636,-6.41387889294143
1.642,-6.39397858497853
1.648,-6.37416755900161
1.654,-6.35445278175715
1.66,-6.33484057311093
1.666,-6.3153366555221
1.672,-6.29594619972754
1.678,-6.27667386692808
1.684,-6.25752384774894
1.69,-6.23849989822865
1.696,-6.21960537307343
1.702,-6.20084325639816
1.708,-6.18221619016043
1.714,-6.16372650048107
1.72,-6.14537622203342
1.726,-6.12716712067499
1.732,-6.1091007144892
1.738,-6.09117829340388
1.744,-6.07340093755819
1.75,-6.05576953460491
1.756,-6.03828479616622
1.762,-6.02094727372053
1.768,-6.0037573743053
1.774,-5.98671537661916
1.78,-5.96982144847978
1.786,-5.95307566732173
1.792,-5.9364780469154
1.798,-5.92002857675775
1.804,-5.90372728831072
1.81,-5.88757438236754
1.816,-5.87157051111439
1.822,-5.85571751518946
1.828,-5.84002083319605
1.834,-5.8245008164166
1.84,-5.80931362688934
1.846,-5.79296835544682
1.852,-5.77828980613343
1.858,-5.76335611613567
1.864,-5.74851793760907
1.87,-5.73380494600759
1.876,-5.71922404479214
1.882,-5.70477719111719
1.888,-5.69046473397396
1.894,-5.67628636462919
1.9,-5.66224146086073
1.906,-5.64832923363063
1.912,-5.63454879760408
1.918,-5.62089920848206
1.924,-5.60737948443303
1.93,-5.59398861929837
1.936,-5.58072559125891
1.942,-5.56758936885301
1.948,-5.55457891536981
1.954,-5.54169319219874
1.96,-5.52893116147915
1.966,-5.51629178826114
1.972,-5.50377404231185
1.978,-5.49137689965519
1.984,-5.47909934390475
1.99,-5.46694036743101
1.996,-5.45489897239301
2.002,-5.4429741716559
2.008,-5.43116498961131
2.014,-5.41947046291317
2.02,-5.40788964113927
2.026,-5.39642158738683
2.032,-5.38506537880921
2.038,-5.37382010709922
2.044,-5.3626848789246
2.05,-5.35165881631964
2.056,-5.34074105703713
2.062,-5.32993075486407
2.068,-5.31922707990431
2.074,-5.30862921883101
2.08,-5.29813637511171
2.086,-5.28774776920814
2.092,-5.2774626387535
2.098,-5.26728023870885
2.104,-5.25719984150102
2.11,-5.24722073714349
2.116,-5.23734223334236
2.122,-5.22756365558872
2.128,-5.21788434723913
2.134,-5.20830366958566
2.14,-5.19882100191678
2.146,-5.18943574157048
2.152,-5.18014730398085
2.158,-5.17095512271916
2.164,-5.16185864953079
2.17,-5.15285735436882
2.176,-5.14395072542545
2.182,-5.13513826916218
2.188,-5.12641951033959
2.194,-5.11779399204773
2.2,-5.1092612757378
2.206,-5.10082094125614
2.212,-5.0924725868811
2.218,-5.08421582936366
2.224,-5.07605030397251
2.23,-5.06797566454425
2.236,-5.05999158353944
2.242,-5.05209775210512
2.248,-5.0442938801445
2.254,-5.03657969639438
2.26,-5.02895494851101
2.266,-5.02141940316486
2.272,-5.0139728461451
2.278,-5.00661508247422
2.284,-4.99934593653342
2.29,-4.99216525219945
2.296,-4.98507289299336
2.302,-4.97806874224183
2.308,-4.97115270325173
2.314,-4.96432469949834
2.32,-4.957584674828
2.326,-4.95093259367585
2.332,-4.94436844129901
2.338,-4.93789222402622
2.344,-4.93150396952435
2.35,-4.92520372708253
2.356,-4.91899156791466
2.362,-4.91286758548096
2.368,-4.90683189582926
2.374,-4.90088463795701
2.38,-4.8950259741946
2.386,-4.88925609061091
2.392,-4.88357519744203
2.398,-4.87798352954398
2.404,-4.87248134687039
2.41,-4.86706893497623
2.416,-4.86174660554849
2.422,-4.85651469696506
2.428,-4.85137357488288
2.434,-4.84632363285646
2.44,-4.84136529298833
2.446,-4.83649900661247
2.452,-4.83172525501226
2.458,-4.82704455017435
2.464,-4.82245743558022
2.47,-4.81796448703667
2.476,-4.81356631354738
2.482,-4.8092635582272
2.488,-4.80505689926097
2.494,-4.80094705090912
2.5,-4.79693476456204
2.506,-4.79302082984567
2.512,-4.78920607578042
2.518,-4.78549137199625
2.524,-4.78187763000641
2.53,-4.77836580454277
2.536,-4.77495689495568
2.542,-4.77165194668164
2.548,-4.76845205278191
2.554,-4.76535835555603
2.56,-4.76237204823362
2.566,-4.75949437674868
2.572,-4.75672664160072
2.578,-4.75407019980695
2.584,-4.75152646695061
2.59,-4.74909691933035
2.596,-4.7467830962161
2.602,-4.74458660221716
2.608,-4.74250910976866
2.614,-4.74055236174269
2.62,-4.73871817419122
2.626,-4.73700843922792
2.632,-4.73542512805692
2.638,-4.73397029415644
2.644,-4.73264607662655
2.65,-4.73145470371017
2.656,-4.7303984964975
2.662,-4.72947987282451
2.668,-4.72870135137698
2.674,-4.7280655560122
2.68,-4.72757522031139
2.686,-4.7272331923767
2.692,-4.72704243988777
2.698,-4.7270060554335
2.704,-4.72712726213625
2.71,-4.72740941958645
2.716,-4.72785603010729
2.722,-4.72847074537009
2.728,-4.72925737338291
2.734,-4.73021988587624
2.74,-4.73136242611138
2.746,-4.73268931713939
2.752,-4.73420507053974
2.758,-4.73591439567103
2.764,-4.73782220946748
2.77,-4.7399336468183
2.776,-4.74225407156941
2.782,-4.74478908819011
2.788,-4.74754455415062
2.794,-4.75052659306017
2.8,-4.75374160861866
2.806,-4.75719629943992
2.812,-4.76089767480853
2.818,-4.76485307143761
2.824,-4.76907017130004
2.83,-4.77355702061212
2.836,-4.77832205005453
2.842,-4.78337409632299
2.848,-4.78872242510854
2.854,-4.79437675561602
2.86,-4.8003472867384
2.866,-4.80664472501485
2.872,-4.81328031451171
2.878,-4.82026586877745
2.884,-4.82761380503627
2.89,-4.83533718079962
2.896,-4.84344973309131
2.902,-4.85196592049922
2.908,-4.86090096828657
2.914,-4.87027091681721
2.92,-4.88009267357309
2.926,-4.89038406906839
2.932,-4.90116391699369
2.938,-4.91245207895606
2.944,-4.92426953421566
2.95,-4.93663845485977
2.956,-4.94958228689787
2.962,-4.96312583781047
2.968,-4.97729537113765
2.974,-4.99211870875366
2.98,-5.00762534153986
2.986,-5.02384654924291
2.992,-5.04081553038796
2.998,-5.05856754320841
3.004,-5.07714005865804
3.01,-5.0965729266862
3.016,-5.11690855708679
3.022,-5.13819211637701
3.028,-5.16047174232537
3.034,-5.18379877793189
3.04,-5.20822802687062
3.046,-5.23381803263788
3.052,-5.26063138391282
3.058,-5.28873504893542
3.064,-5.3182007420442
3.07,-5.34910532589895
3.076,-5.3815312533488
3.082,-5.41556705340128
3.088,-5.45130786631251
3.094,-5.48885603346389
3.1,-5.52832174842887
3.106,-5.56982377648064
3.112,-5.61349025076499
3.118,-5.65945955448492
3.124,-5.70788129974011
3.13,-5.75891741516553
3.136,-5.81274335625908
3.142,-5.86954945432077
3.148,-5.92954242230393
3.154,-5.99294703866935
3.16,-6.0600080336209
3.166,-6.13099220599027
3.172,-6.20619080366235
3.178,-6.2859222059537
3.184,-6.3705349529873
3.19,-6.46041117511369
3.196,-6.55597048515806
3.202,-6.65767440817264
3.208,-6.76603143803291
3.214,-6.88160282840769
3.22,-7.0050092483929
3.226,-7.13693846181125
3.232,-7.27815422573157
3.238,-7.42950665072249
3.244,-7.59194432629544
3.25,-7.76652859487907
3.256,-7.95459433844744
3.262,-8.15740075156578
3.268,-8.37648026004631
3.274,-8.61357355616673
3.28,-8.87066696961694
3.286,-9.15003883977531
3.292,-9.45431774972392
3.298,-9.78655662921036
3.304,-10.1503284384885
3.31,-10.5498517307175
3.316,-10.9901584018332
3.322,-11.4773223184385
3.328,-12.0187779615351
3.334,-12.6237758949562
3.34,-13.3040529046918
3.346,-14.0748516161382
3.352,-14.9565344921569
3.358,-15.9772635422696
3.364,-17.1777194543535
3.37,-18.6200597115635
3.376,-20.406699442283
3.382,-22.725556429003
3.388,-25.984766264321
3.394,-31.3991422883626
3.4,-49.5727550524877
3.406,-33.7063984696448
3.412,-26.9933909931947
3.418,-23.2435354747258
3.424,-20.6359520155409
3.43,-18.6430334579916
3.436,-17.037491475344
3.442,-15.7002963636537
3.448,-14.561144213906
3.454,-13.5749204050772
3.46,-12.7108422304398
3.466,-11.9468797667711
3.472,-11.2666500817396
3.478,-10.6575780592144
3.484,-10.1097523708505
3.49,-9.61518469732309
3.496,-9.16731368745695
3.502,-8.76066311236389
3.508,-8.39060026155616
3.514,-8.05316126400226
3.52,-7.74492212902475
3.526,-7.46290165948557
3.532,-7.2044869937503
3.538,-6.96737548851243
3.544,-6.74952859397873
3.55,-6.54913466962172
3.556,-6.36457856969892
3.562,-6.19441643459316
3.568,-6.03735454709705
3.574,-5.89223141087911
3.58,-5.75800242052052
3.586,-5.63372664492718
3.592,-5.51855535646458
3.598,-5.41172201913128
3.604,-5.31253350901664
3.61,-5.22036238514731
3.616,-5.13464006281751
3.622,-5.05485076758627
3.628,-4.98052616842391
3.634,-4.91124060450528
3.64,-4.846606832962
3.646,-4.78627223529896
3.652,-4.72991542872071
3.658,-4.67724323571409
3.664,-4.62798797120299
3.67,-4.58190501165547
3.676,-4.53877061485717
3.682,-4.49837996279803
3.688,-4.46054540335394
3.694,-4.42509486926187
3.7,-4.3918704553485
3.706,-4.36072713713164
3.712,-4.33153161581139
3.718,-4.30416127634016
3.724,-4.27850324673627
3.73,-4.25445354810984
3.736,-4.23191632602337
3.742,-4.21080315483085
3.748,-4.19103240754513
3.754,-4.17252868458603
3.76,-4.15522229547467
3.766,-4.1390487881725
3.772,-4.12394852132581
3.778,-4.10986627517686
3.784,-4.09675089734729
3.79,-4.0845549800955
3.796,-4.07323456600244
3.802,-4.0627488793539
3.808,-4.05306008076793
3.814,-4.04413304286547
3.82,-4.03593514500547
3.826,-4.02843608530456
3.832,-4.0216077083397
3.838,-4.01542384709093
3.844,-4.0098601778239
3.85,-4.00489408673943
3.856,-4.0005045473311
3.862,-3.99667200749485
3.868,-3.99337828552594
3.874,-3.99060647422128
3.88,-3.98834085237923
3.886,-3.98656680305555
3.892,-3.98527073799404
3.898,-3.98444002770448
3.904,-3.98406293670905
3.91,-3.98412856352219
3.916,-3.98462678496849
3.922,-3.9855482044789
3.928,-3.98688410403777
3.934,-3.98862639948258
3.94,-3.99076759888443
3.946,-3.9933007637615
3.952,-3.99621947289923
3.958,-3.99951778857083
3.964,-4.00319022496936
3.97,-4.0072317186791
3.976,-4.01163760102862
3.982,-4.01640357218129
3.988,-4.02152567683138
3.994,-4.02700028138498
4,-4.03282405251514
4.006,-4.03899393699004
4.012,-4.0455071426812
4.018,-4.0523611206671
4.024,-4.05955354835383
4.03,-4.06708231354191
4.036,-4.0749454993735
4.042,-4.08314137010028
4.048,-4.09166835761709
4.054,-4.10052504871115
4.06,-4.10971017298077
4.066,-4.11922259138158
4.072,-4.12906128536187
4.078,-4.13922534655183
4.084,-4.14971396697474
4.09,-4.16052642975091
4.096,-4.17166210026775
4.102,-4.18312041779174
4.108,-4.19490088750062
4.114,-4.20700307291558
4.12,-4.21942658871581
4.126,-4.23217109391893
4.132,-4.24523628541288
4.138,-4.2586218918261
4.144,-4.27232766772413
4.15,-4.2863533881223
4.156,-4.30069884330494
4.162,-4.31536383394277
4.168,-4.33034816650105
4.174,-4.34565164893159
4.18,-4.3612740866428
4.186,-4.37721527874219
4.192,-4.39347501454624
4.198,-4.41005307035304
4.204,-4.42694920647306
4.21,-4.44416316451363
4.216,-4.46169466491247
4.222,-4.4795434047154
4.228,-4.49770905559283
4.234,-4.51619126208921
4.24,-4.53498964009815
4.246,-4.55410377555563
4.252,-4.57353322334139
4.258,-4.59327750637761
4.264,-4.61333611491143
4.27,-4.63370850596564
4.276,-4.65439410293897
4.282,-4.67539229533387
4.288,-4.69670243858608
4.294,-4.71832385396563
4.3,-4.740255828514
4.306,-4.76249761497641
4.312,-4.78504843168163
4.318,-4.80790746231492
4.324,-4.83107385552131
4.33,-4.854546724268
4.336,-4.87832514488511
4.342,-4.9024081556935
4.348,-4.92679475511781
4.354,-4.95148389917114
4.36,-4.97647449818588
4.366,-5.00176541265356
4.372,-5.02735544802444
4.378,-5.05324334830674
4.384,-5.07942778829585
4.39,-5.10590736425571
4.396,-5.13268058287014
4.402,-5.15974584828102
4.408,-5.18710144703468
4.414,-5.21474553076921
4.42,-5.24267609649522
4.426,-5.27089096435219
4.432,-5.29938775276479
4.438,-5.32816385097957
4.444,-5.35721638903389
4.45,-5.38654220529826
4.456,-5.41613781184068
4.462,-5.44599935798742
4.468,-5.47612259259899
4.474,-5.50650282574
4.48,-5.53713489059388
4.486,-5.56801310665293
4.492,-5.599131245392
4.498,-5.63048249980179
4.504,-5.66205945930169
4.51,-5.69385409165939
4.516,-5.7258577335992
4.522,-5.75806109176825
4.528,-5.79045425563412
4.534,-5.82302672369819
4.54,-5.85576744411776
4.546,-5.88866487043564
4.552,-5.92170703262485
4.558,-5.95488162308412
4.564,-5.98817609659002
4.57,-6.02157778255967
4.576,-6.05507400734149
4.582,-6.08865222367765
4.588,-6.12230014401435
4.594,-6.1560058740173
4.6,-6.18975804251292
4.606,-6.22354592414324
4.612,-6.25735955129974
4.618,-6.29118981238058
4.624,-6.32502853407144
4.63,-6.35886854614383
4.636,-6.39270372815028
4.642,-6.42652903831966
4.648,-6.46034052586955
4.654,-6.49413532881004
4.66,-6.52791166008268
4.666,-6.56166878554004
4.672,-6.59540699782177
4.678,-6.62912759063677
4.684,-6.66283283834525
4.69,-6.69652598609367
4.696,-6.73021125614335
4.702,-6.76389387651529
4.708,-6.79758013871953
4.714,-6.83127749221799
4.72,-6.86499468444812
4.726,-6.89874195674001
4.732,-6.93253130824596
4.738,-6.96637684184665
4.744,-7.00029520730179
4.75,-7.03430615627533
4.756,-7.06843321820884
4.762,-7.10270448877692
4.768,-7.13715348001038
4.774,-7.17181988420524
4.78,-7.2067498922833
4.786,-7.24199525721617
4.792,-7.27760935358872
4.798,-7.31363657206977
4.804,-7.35008767556281
4.81,-7.38688726025585
4.816,-7.42377101460107
4.822,-7.46011078876391
4.828,-7.49469698755028
4.834,-7.52569800064331
4.84,-7.55130793897863
4.846,-7.57129388495749
4.852,-7.58802421754878
4.858,-7.60510927805229
4.864,-7.6250108679882
4.87,-7.64830341461391
4.876,-7.67444175003132
4.882,-7.70260189450042
4.888,-7.73207350891805
4.894,-7.76234533204782
4.9,-7.79307636150055
4.906,-7.82404627231974
4.912,-7.85511415191913
4.918,-7.88618978132515
4.924,-7.91721497299144
4.93,-7.94815176789697
4.936,-7.97897503108744
4.942,-8.00966780083107
4.948,-8.04021835039649
4.954,-8.07061831733076
4.96,-8.10086150254687
4.966,-8.13094309338311
4.972,-8.16085915760488
4.978,-8.19060631222292
4.984,-8.2201815061395
4.99,-8.2495818775315
4.996,-8.27880466066404
5.002,-8.30784712559755
5.008,-8.33670653988723
5.014,-8.36538014503296
5.02,-8.39386514283601
5.026,-8.4221586884042
5.032,-8.45025788760431
5.038,-8.47815979747012
5.044,-8.50586142855401
5.05,-8.53335974853612
5.056,-8.56065168662708
5.062,-8.58773413845289
5.068,-8.61460397121466
5.074,-8.64125802898761
5.08,-8.66769313807265
5.086,-8.6939061123469
5.092,-8.71989375858243
5.098,-8.74565288171685
5.104,-8.77118029006932
5.11,-8.79647280050146
5.116,-8.82152724352613
5.122,-8.84634046836855
5.128,-8.87090934798516
5.134,-8.89523078404492
5.14,-8.91930171187737
5.146,-8.94311910539028
5.152,-8.96667998195865
5.158,-8.9899814072855
5.164,-9.01302050023319
5.17,-9.03579443762281
5.176,-9.05830045899783
5.182,-9.08053587134691
5.188,-9.10249805377957
5.194,-9.12418446214728
5.2,-9.14559263360186
5.206,-9.16672019108186
5.212,-9.18756484771706
5.218,-9.20812441114074
5.224,-9.22839678769846
5.23,-9.24837998654226
5.236,-9.26807212359845
5.242,-9.28747142539723
5.248,-9.30657623275237
5.254,-9.32538500427916
5.26,-9.34389631973887
5.266,-9.3621088831987
5.272,-9.3800215259959
5.278,-9.39763320949569
5.284,-9.41494302763309
5.29,-9.4319502092291
5.296,-9.44865412007259
5.302,-9.46505426476017
5.308,-9.48115028828661
5.314,-9.4969419773799
5.32,-9.51242926157548
5.326,-9.52761221402531
5.332,-9.54249105203852
5.338,-9.55706613735121
5.344,-9.57133797612426
5.35,-9.58530721866872
5.356,-9.59897465889982
5.362,-9.6123412335213
5.368,-9.62540802094305
5.374,-9.63817623993588
5.38,-9.65064724802845
5.386,-9.66282253965214
5.392,-9.67470374404059
5.398,-9.68629262289168
5.404,-9.69759106780032
5.41,-9.70860109747143
5.416,-9.71932485472286
5.422,-9.72976460328909
5.428,-9.73992272443681
5.434,-9.74980171340408
5.44,-9.75940417567534
5.446,-9.76873282310481
5.452,-9.77779046990111
5.458,-9.78658002848632
5.464,-9.79510450524277
5.47,-9.80336699616091
5.476,-9.81137068240186
5.482,-9.81911882578793
5.488,-9.82661476423454
5.494,-9.83386190713678
5.5,-9.84086373072346
5.506,-9.84791280178016
5.512,-9.85472278351195
5.518,-9.86129415741154
5.524,-9.86762750777528
5.53,-9.87372352083223
5.536,-9.87958298369824
5.542,-9.88520678314977
5.548,-9.8905959042142
5.554,-9.89575142857186
5.56,-9.90067453276603
5.566,-9.90536648621655
5.572,-9.90982864903284
5.578,-9.91406246962278
5.584,-9.91806948209259
5.59,-9.92185130343446
5.596,-9.9254096304974
5.602,-9.92874623673779
5.608,-9.93186296874565
5.614,-9.93476174254284
5.62,-9.93744453964991
5.626,-9.93991340291789
5.632,-9.9421704321221
5.638,-9.94421777931488
5.644,-9.94605764393473
5.65,-9.94769226766954
5.656,-9.94912392907224
5.662,-9.95035493792763
5.668,-9.9513876293694
5.674,-9.95222435774794
5.68,-9.9528674902495
5.686,-9.95331940026854
5.692,-9.9535824605364
5.698,-9.95365903601038
5.704,-9.9535514765287
5.71,-9.95326210923867
5.716,-9.95279323080668
5.722,-9.9521470994212
5.728,-9.95132592660136
5.734,-9.9503318688268
5.74,-9.94916701900618
5.746,-9.94783339780564
5.752,-9.94633294486037
5.758,-9.94466750989638
5.764,-9.94283884379288
5.77,-9.94084858961901
5.776,-9.93869827368295
5.782,-9.93638929663492
5.788,-9.9339229246699
5.794,-9.93130028088007
5.8,-9.92852233681115
5.806,-9.92558990428084
5.812,-9.92250362752176
5.818,-9.91926397571513
5.824,-9.91587123598538
5.83,-9.91232550692825
5.836,-9.90862669274938
5.842,-9.90477449809071
5.848,-9.90076842362557
5.854,-9.89660776250265
5.86,-9.89229159772005
5.866,-9.88781880050904
5.872,-9.88318802980525
5.878,-9.8783977328819
5.884,-9.87344614721534
5.89,-9.86833130364743
5.896,-9.863051030903
5.902,-9.85760296151292
5.908,-9.85198453918512
5.914,-9.8461930276568
5.92,-9.84022552105199
5.926,-9.83407895576047
5.932,-9.82775012384567
5.938,-9.82123568798317
5.944,-9.81453219792795
5.95,-9.80763610850795
5.956,-9.80054379914587
5.962,-9.79325159492073
5.968,-9.78575578919781
5.974,-9.77805266787925
5.98,-9.77013853536255
5.986,-9.7620097423361
5.992,-9.75366271559635
5.998,-9.74509399013435
6.004,-9.73630024381306
6.01,-9.72727833503876
6.016,-9.7180253439137
6.022,-9.70853861744217
6.028,-9.69881581943715
6.034,-9.68885498583229
6.04,-9.67865458612936
6.046,-9.66821359169147
6.052,-9.65753155150544
6.058,-9.64660867586555
