"Freq [GHz]","dB(St(8,8)) []"
1,-5.68722602670113
1.006,-5.64655926911431
1.012,-5.58752305858826
1.018,-5.51625375562381
1.024,-5.44040135450988
1.03,-5.36824814051682
1.036,-5.30737873451369
1.042,-5.26330377729017
1.048,-5.23855615382753
1.054,-5.23259392354236
1.06,-5.24246183598333
1.066,-5.26385343586554
1.072,-5.29215732725164
1.078,-5.32322090308679
1.084,-5.35376327292696
1.09,-5.38150047955941
1.096,-5.40508904164799
1.102,-5.42398083260246
1.108,-5.43825050531731
1.114,-5.44842769670263
1.12,-5.45534709293143
1.126,-5.46001946032105
1.132,-5.46352293756171
1.138,-5.46691334180043
1.144,-5.47115289857201
1.15,-5.47705744208567
1.156,-5.48526219114825
1.162,-5.49620560566187
1.168,-5.51012978764352
1.174,-5.52709476081969
1.18,-5.5470030818632
1.186,-5.56963082412741
1.192,-5.59466109077141
1.198,-5.62171677521641
1.204,-5.65039012357876
1.21,-5.68026757679169
1.216,-5.7109492220498
1.222,-5.74206286452928
1.228,-5.77327320187321
1.234,-5.80428685358475
1.24,-5.83485410134019
1.246,-5.86476818126856
1.252,-5.89386288092625
1.258,-5.92200906931872
1.264,-5.94911065473115
1.27,-5.97510033929978
1.276,-5.99993543023303
1.282,-6.02359387878106
1.288,-6.04607064929809
1.294,-6.06737446991558
1.3,-6.08752498048558
1.306,-6.10655026945336
1.312,-6.12448477632244
1.318,-6.14136752795252
1.324,-6.15724067312552
1.33,-6.17214827911457
1.336,-6.18613535527128
1.342,-6.19924707109513
1.348,-6.21152813930007
1.354,-6.22302233766637
1.36,-6.23377214671469
1.366,-6.2438184833166
1.372,-6.25320051317913
1.378,-6.26195552767444
1.384,-6.27011887272119
1.39,-6.27772391937345
1.396,-6.28480206745492
1.402,-6.2913827750181
1.408,-6.29749360763603
1.414,-6.30316030257525
1.42,-6.3084068437785
1.426,-6.31325554432609
1.432,-6.31772713366726
1.438,-6.32184084743411
1.444,-6.32561451808685
1.45,-6.32906466500294
1.456,-6.33220658292581
1.462,-6.33505442794027
1.468,-6.33762130035024
1.474,-6.33991932400645
1.48,-6.34195972177264
1.486,-6.34375288693461
1.492,-6.34530845044982
1.498,-6.34663534401078
1.504,-6.34774185895549
1.51,-6.34863570110527
1.516,-6.34932404164702
1.522,-6.34981356420396
1.528,-6.35011050825915
1.534,-6.3502207091099
1.54,-6.35014963453951
1.546,-6.34990241839782
1.552,-6.34948389128267
1.558,-6.34889860851334
1.564,-6.3481508755829
1.57,-6.34724477127148
1.576,-6.34618416859554
1.582,-6.34497275376102
1.588,-6.34361404327993
1.594,-6.34211139940144
1.6,-6.34046804399993
1.606,-6.33868707105339
1.612,-6.33677145783708
1.618,-6.33472407494865
1.624,-6.33254769527265
1.63,-6.33024500198415
1.636,-6.32781859568377
1.642,-6.32527100074882
1.648,-6.32260467097838
1.654,-6.31982199460365
1.66,-6.31692529872846
1.666,-6.3139168532593
1.672,-6.31079887437848
1.678,-6.30757352760914
1.684,-6.30424293051561
1.69,-6.30080915507848
1.696,-6.2972742297789
1.702,-6.29364014142257
1.708,-6.28990883672959
1.714,-6.28608222371183
1.72,-6.28216217285475
1.726,-6.2781505181151
1.732,-6.27404905773953
1.738,-6.26985955489993
1.744,-6.26558373812988
1.75,-6.26122330152844
1.756,-6.25677990467029
1.762,-6.25225517211687
1.768,-6.24765069234851
1.774,-6.24296801580604
1.78,-6.23820865148898
1.786,-6.23337406109131
1.792,-6.22846564870563
1.798,-6.22348474205709
1.804,-6.21843255635475
1.81,-6.21331011919529
1.816,-6.20811809775125
1.822,-6.20285634025378
1.828,-6.1975223738864
1.834,-6.1921044040905
1.84,-6.18650893784447
1.846,-6.18168667195372
1.852,-6.17580528989507
1.858,-6.17013254220178
1.864,-6.16443154862711
1.87,-6.15868334647764
1.876,-6.1528839562637
1.882,-6.14703259795238
1.888,-6.14112950489489
1.894,-6.13517530589809
1.9,-6.12917080346668
1.906,-6.1231168806845
1.912,-6.11701445750746
1.918,-6.11086446849687
1.924,-6.10466785076422
1.93,-6.09842553715117
1.936,-6.09213845225946
1.942,-6.08580751011089
1.948,-6.07943361277923
1.954,-6.07301764962252
1.96,-6.06656049689705
1.966,-6.06006301762042
1.972,-6.05352606160015
1.978,-6.04695046557411
1.984,-6.04033705342729
1.99,-6.03368663646077
1.996,-6.02700001369637
2.002,-6.02027797220503
2.008,-6.01352128745083
2.014,-6.00673072364414
2.02,-5.99990703409948
2.026,-5.9930509615946
2.032,-5.98616323872804
2.038,-5.9792445882732
2.044,-5.97229572352709
2.05,-5.96531734865261
2.056,-5.95831015901326
2.062,-5.95127484149937
2.068,-5.9442120748451
2.074,-5.93712252993572
2.08,-5.93000687010465
2.086,-5.92286575141978
2.092,-5.91569982295881
2.098,-5.9085097270733
2.104,-5.90129609964118
2.11,-5.89405957030752
2.116,-5.88680076271353
2.122,-5.87952029471341
2.128,-5.8722187785792
2.134,-5.86489682119347
2.14,-5.85755502422973
2.146,-5.85019398432063
2.152,-5.84281429321384
2.158,-5.83541653791575
2.164,-5.82800130082279
2.17,-5.82056915984058
2.176,-5.81312068849081
2.182,-5.80565645600601
2.188,-5.7981770274121
2.194,-5.79068296359888
2.2,-5.78317482137851
2.206,-5.7756531535319
2.212,-5.76811850884327
2.218,-5.76057143212275
2.224,-5.75301246421714
2.23,-5.74544214200896
2.236,-5.73786099840364
2.242,-5.73026956230508
2.248,-5.72266835857956
2.254,-5.71505790800794
2.26,-5.70743872722631
2.266,-5.699811328655
2.272,-5.69217622041604
2.278,-5.68453390623894
2.284,-5.67688488535498
2.29,-5.66922965237975
2.296,-5.66156869718403
2.302,-5.65390250475305
2.308,-5.64623155503375
2.314,-5.63855632277041
2.32,-5.63087727732807
2.326,-5.62319488250407
2.332,-5.61550959632721
2.338,-5.60782187084466
2.344,-5.60013215189628
2.35,-5.59244087887622
2.356,-5.58474848448161
2.362,-5.57705539444806
2.368,-5.56936202727172
2.374,-5.56166879391769
2.38,-5.55397609751434
2.386,-5.54628433303336
2.392,-5.538593886955
2.398,-5.5309051369183
2.404,-5.52321845135571
2.41,-5.51553418911176
2.416,-5.50785269904524
2.422,-5.50017431961432
2.428,-5.4924993784442
2.434,-5.48482819187642
2.44,-5.4771610644995
2.446,-5.46949828865992
2.452,-5.46184014395291
2.458,-5.45418689669217
2.464,-5.44653879935771
2.47,-5.43889609002088
2.476,-5.43125899174577
2.482,-5.42362771196572
2.488,-5.41600244183422
2.494,-5.40838335554871
2.5,-5.40077060964637
2.506,-5.39316434227043
2.512,-5.38556467240576
2.518,-5.37797169908217
2.524,-5.37038550054416
2.53,-5.36280613338518
2.536,-5.35523363164493
2.542,-5.3476680058678
2.548,-5.34010924212059
2.554,-5.33255730096741
2.56,-5.32501211639963
2.566,-5.31747359471873
2.572,-5.30994161336937
2.578,-5.3024160197205
2.584,-5.29489662979147
2.59,-5.28738322692048
2.596,-5.27987556037228
2.602,-5.27237334388195
2.608,-5.2648762541313
2.614,-5.25738392915437
2.62,-5.24989596666817
2.626,-5.24241192232464
2.632,-5.23493130787959
2.638,-5.22745358927403
2.644,-5.21997818462315
2.65,-5.21250446210781
2.656,-5.20503173776322
2.662,-5.19755927315903
2.668,-5.19008627296483
2.674,-5.18261188239458
2.68,-5.17513518452323
2.686,-5.16765519746832
2.692,-5.16017087142875
2.698,-5.15268108557287
2.704,-5.145184644767
2.71,-5.13768027613552
2.716,-5.13016662544257
2.722,-5.12264225328528
2.728,-5.11510563108759
2.734,-5.10755513688303
2.74,-5.09998905087417
2.746,-5.09240555075591
2.752,-5.08480270678847
2.758,-5.07717847660577
2.764,-5.06953069974332
2.77,-5.06185709186943
2.776,-5.05415523870194
2.782,-5.04642258959217
2.788,-5.03865645075619
2.794,-5.03085397813263
2.8,-5.02301216984499
2.806,-5.01512785824475
2.812,-5.00719770151066
2.818,-4.99921817477776
2.824,-4.99118556076834
2.83,-4.98309593989517
2.836,-4.97494517980602
2.842,-4.96672892433632
2.848,-4.95844258183509
2.854,-4.95008131282749
2.86,-4.94164001697491
2.866,-4.93311331929195
2.872,-4.92449555557692
2.878,-4.9157807570108
2.884,-4.90696263387688
2.89,-4.89803455835124
2.896,-4.88898954631186
2.902,-4.8798202381117
2.908,-4.87051887825883
2.914,-4.86107729394458
2.92,-4.85148687235812
2.926,-4.84173853672422
2.932,-4.83182272099899
2.938,-4.82172934315647
2.944,-4.81144777699823
2.95,-4.8009668224168
2.956,-4.79027467404365
2.962,-4.77935888821274
2.968,-4.76820634817189
2.974,-4.75680322747613
2.98,-4.74513495150085
2.986,-4.73318615701699
2.992,-4.72094064977748
2.998,-4.70838136007222
3.004,-4.69549029622035
3.01,-4.68224849598217
3.016,-4.66863597589075
3.022,-4.65463167852422
3.028,-4.64021341776633
3.034,-4.62535782213393
3.04,-4.61004027628849
3.046,-4.59423486089388
3.052,-4.57791429103697
3.058,-4.56104985349149
3.064,-4.54361134318138
3.07,-4.52556699928847
3.076,-4.50688344155329
3.082,-4.48752560743904
3.088,-4.46745669096967
3.094,-4.44663808421576
3.1,-4.42502932259047
3.106,-4.40258803533382
3.112,-4.37926990281139
3.118,-4.35502862253616
3.124,-4.32981588614285
3.13,-4.30358136990739
3.136,-4.27627274181163
3.142,-4.24783568861008
3.148,-4.21821396686273
3.154,-4.18734948245713
3.16,-4.15518240375549
3.166,-4.121651314166
3.172,-4.08669341064764
3.178,-4.05024475540875
3.184,-4.0122405888374
3.19,-3.97261571249176
3.196,-3.931304951755
3.202,-3.88824370849083
3.208,-3.84336861467963
3.214,-3.79661829851556
3.22,-3.74793427473458
3.226,-3.69726197093485
3.232,-3.64455190124215
3.238,-3.58976099773952
3.244,-3.53285410847977
3.25,-3.47380566846736
3.256,-3.41254665277553
3.262,-3.34911314290356
3.268,-3.28351993099567
3.274,-3.21580007509348
3.28,-3.14600745180121
3.286,-3.07421941118709
3.292,-3.0005394839241
3.298,-2.92510007489813
3.304,-2.84806506006824
3.31,-2.76963218479036
3.316,-2.69003514296535
3.322,-2.60954519846276
3.328,-2.52847219492941
3.334,-2.44716478934252
3.34,-2.36600974089398
3.346,-2.28543009259305
3.352,-2.20588210094841
3.358,-2.12785080150045
3.364,-2.05184414632744
3.37,-1.97838571420103
3.376,-1.90800607333477
3.382,-1.841232967034
3.388,-1.77858058808479
3.394,-1.72053830032766
3.4,-1.66755924590354
3.406,-1.62004933397504
3.412,-1.57835713205654
3.418,-1.54276516765485
3.424,-1.51348309288038
3.43,-1.49064307009795
3.436,-1.47429760972736
3.442,-1.46441994358947
3.448,-1.46090686323481
3.454,-1.46358380778554
3.46,-1.47221186379718
3.466,-1.48649625091937
3.472,-1.50609581745138
3.478,-1.53063305995194
3.484,-1.55970420703218
3.49,-1.59288896209003
3.496,-1.62975957388113
3.502,-1.66988898790487
3.508,-1.71285791690504
3.514,-1.75826074833313
3.52,-1.80571027550457
3.526,-1.85484129463573
3.532,-1.90531315110177
3.538,-1.956811345681
3.544,-2.00904832681668
3.55,-2.0617636001438
3.556,-2.11472328399644
3.562,-2.16771923154527
3.568,-2.22056782858474
3.574,-2.2731085624264
3.58,-2.32520244313062
3.586,-2.37673034435257
3.592,-2.42759131801847
3.598,-2.4777009252658
3.604,-2.52698961576726
3.61,-2.5754011787612
3.616,-2.62289128178351
3.622,-2.66942610712911
3.628,-2.71498109131972
3.634,-2.75953976916249
3.64,-2.80309272119071
3.646,-2.84563662123319
3.652,-2.88717337942579
3.658,-2.92770937503479
3.664,-2.96725477290424
3.67,-3.00582291707791
3.676,-3.04342979510949
3.682,-3.08009356670121
3.688,-3.11583415055399
3.694,-3.15067286363286
3.7,-3.18463210742103
3.706,-3.21773509613101
3.712,-3.25000562224575
3.718,-3.28146785516345
3.724,-3.31214616910867
3.73,-3.34206499684231
3.736,-3.37124870605209
3.742,-3.3997214956286
3.748,-3.42750730933167
3.754,-3.45462976462477
3.76,-3.48111209470521
3.766,-3.50697710198253
3.772,-3.53224712146136
3.778,-3.55694399266732
3.784,-3.58108903891778
3.79,-3.60470305288503
3.796,-3.62780628752901
3.802,-3.65041845159189
3.808,-3.67255870894855
3.814,-3.69424568119715
3.82,-3.71549745295383
3.826,-3.73633157938506
3.832,-3.75676509557341
3.838,-3.77681452736646
3.844,-3.79649590340587
3.85,-3.81582476807593
3.856,-3.8348161951466
3.862,-3.85348480191871
3.868,-3.87184476370627
3.874,-3.88990982851539
3.88,-3.90769333180053
3.886,-3.92520821119703
3.892,-3.94246702114506
3.898,-3.95948194733394
3.904,-3.97626482090778
3.91,-3.99282713238392
3.916,-4.00918004524469
3.922,-4.02533440917058
3.928,-4.04130077288975
3.934,-4.05708939662476
3.94,-4.07271026412181
3.946,-4.08817309425265
3.952,-4.10348735218239
3.958,-4.11866226009987
3.964,-4.1337068075097
3.97,-4.14862976108731
3.976,-4.16343967410022
3.982,-4.17814489540033
3.988,-4.19275357799333
3.994,-4.20727368719233
4,-4.22171300836385
4.006,-4.23607915427493
4.012,-4.25037957205073
4.018,-4.26462154975258
4.024,-4.27881222258654
4.03,-4.2929585787532
4.036,-4.3070674649494
4.042,-4.32114559153264
4.048,-4.33519953735945
4.054,-4.34923575430855
4.06,-4.36326057150013
4.066,-4.37728019922214
4.072,-4.39130073257478
4.078,-4.40532815484423
4.084,-4.41936834061654
4.09,-4.43342705864255
4.096,-4.44750997446456
4.102,-4.46162265281566
4.108,-4.47577055980189
4.114,-4.48995906487807
4.12,-4.50419344262727
4.126,-4.51847887435426
4.132,-4.5328204495029
4.138,-4.54722316690733
4.144,-4.56169193588653
4.15,-4.57623157719205
4.156,-4.59084682381797
4.162,-4.60554232168239
4.168,-4.62032263018941
4.174,-4.6351922226805
4.18,-4.65015548678355
4.186,-4.66521672466831
4.192,-4.68038015321621
4.198,-4.69564990411251
4.204,-4.71103002386857
4.21,-4.72652447378168
4.216,-4.7421371298398
4.222,-4.75787178257804
4.228,-4.77373213689394
4.234,-4.78972181182776
4.24,-4.80584434031443
4.246,-4.82210316891282
4.252,-4.83850165751836
4.258,-4.85504307906452
4.264,-4.87173061921826
4.27,-4.88856737607471
4.276,-4.90555635985567
4.282,-4.92270049261659
4.288,-4.94000260796625
4.294,-4.95746545080332
4.3,-4.97509167707352
4.306,-4.99288385355111
4.312,-5.01084445764809
4.318,-5.02897587725442
4.324,-5.04728041061226
4.33,-5.06576026622713
4.336,-5.08441756281883
4.342,-5.10325432931472
4.348,-5.12227250488778
4.354,-5.14147393904215
4.36,-5.16086039174824
4.366,-5.18043353363007
4.372,-5.20019494620692
4.378,-5.22014612219199
4.384,-5.24028846585022
4.39,-5.26062329341806
4.396,-5.28115183358789
4.402,-5.30187522805985
4.408,-5.3227945321644
4.414,-5.34391071555901
4.42,-5.36522466300273
4.426,-5.38673717521304
4.432,-5.40844896980947
4.438,-5.43036068234964
4.444,-5.4524728674634
4.45,-5.47478600009213
4.456,-5.49730047684059
4.462,-5.5200166174503
4.468,-5.54293466640412
4.474,-5.56605479467321
4.48,-5.58937710161928
4.486,-5.61290161706626
4.492,-5.6366283035581
4.498,-5.66055705882113
4.504,-5.68468771845228
4.51,-5.70902005885734
4.516,-5.73355380046655
4.522,-5.75828861125906
4.528,-5.78322411063162
4.534,-5.80835987365231
4.54,-5.83369543574566
4.546,-5.85923029786205
4.552,-5.88496393219191
4.558,-5.91089578849394
4.564,-5.93702530111655
4.57,-5.96335189680327
4.576,-5.98987500338619
4.582,-6.01659405948676
4.588,-6.04350852536107
4.594,-6.07061789504686
4.6,-6.09792170999326
4.606,-6.1254195743806
4.612,-6.15311117236903
4.618,-6.18099628754898
4.624,-6.20907482490655
4.63,-6.23734683566114
4.636,-6.26581254538139
4.642,-6.29447238583893
4.648,-6.32332703111451
4.654,-6.35237743852746
4.66,-6.38162489500894
4.666,-6.41107106957716
4.672,-6.44071807258279
4.678,-6.47056852235289
4.684,-6.50062561973877
4.69,-6.5308932308078
4.696,-6.56137597742565
4.702,-6.59207933461189
4.708,-6.62300973209931
4.714,-6.65417465513707
4.72,-6.68558273570246
4.726,-6.71724381905737
4.732,-6.74916898063335
4.738,-6.78137045238376
4.744,-6.81386139258696
4.75,-6.84665539326527
4.756,-6.87976555662212
4.762,-6.91320287368896
4.768,-6.94697348663338
4.774,-6.98107418692195
4.78,-7.0154851687738
4.786,-7.05015860972055
4.792,-7.08500114017207
4.798,-7.11984793171943
4.804,-7.15442667380966
4.81,-7.18831273253268
4.816,-7.22088528130067
4.822,-7.25131178059809
4.828,-7.27861382136403
4.834,-7.30188157454582
4.84,-7.32065653833403
4.846,-7.33534872561885
4.852,-7.34738232536654
4.858,-7.35883177428539
4.864,-7.37170438642589
4.87,-7.38733973778877
4.876,-7.40624087150007
4.882,-7.42826673785499
4.888,-7.45293711270172
4.894,-7.47967564127387
4.9,-7.50794592095862
4.906,-7.53730469125957
4.912,-7.56740872359435
4.918,-7.59800196199308
4.924,-7.62889736709723
4.93,-7.65995980929328
4.936,-7.69109208720773
4.942,-7.72222425786186
4.948,-7.75330578811503
4.954,-7.78429989741751
4.96,-7.81517952439802
4.966,-7.84592446657151
4.972,-7.8765193560705
4.978,-7.90695222717347
4.984,-7.93721350170298
4.99,-7.96729526951821
4.996,-7.99719077775855
5.002,-8.02689406815098
5.008,-8.05639971966567
5.014,-8.08570266637171
5.02,-8.11479806914259
5.026,-8.1436812260315
5.032,-8.17234751048127
5.038,-8.20079232960312
5.044,-8.2290110969372
5.05,-8.25699921566051
5.056,-8.2847520693197
5.062,-8.31226501796536
5.068,-8.33953339814185
5.074,-8.36655252560452
5.08,-8.39331769994045
5.086,-8.41982421049099
5.092,-8.44606734313615
5.098,-8.47204238762039
5.104,-8.49774464518655
5.11,-8.52316943634861
5.116,-8.54831210868193
5.122,-8.57316804454348
5.128,-8.59773266866077
5.134,-8.62200145554644
5.14,-8.64596993670924
5.146,-8.66963370764209
5.152,-8.69298843457465
5.158,-8.71602986098353
5.164,-8.73875381385614
5.17,-8.7611562097071
5.176,-8.78323306034759
5.182,-8.80498047840914
5.188,-8.82639468262396
5.194,-8.84747200286414
5.2,-8.86820888494256
5.206,-8.88860189517787
5.212,-8.90864772472616
5.218,-8.92834319368169
5.224,-8.9476852549489
5.23,-8.9666709978877
5.236,-8.98529765173407
5.242,-9.00356258879761
5.248,-9.02146332743784
5.254,-9.03899753482064
5.26,-9.0561630294565
5.266,-9.07295778352205
5.272,-9.08937992496607
5.278,-9.10542773940188
5.284,-9.1210996717872
5.29,-9.13639432789325
5.296,-9.15131047556466
5.302,-9.16584704577189
5.308,-9.18000313345788
5.314,-9.19377799818095
5.32,-9.2071710645558
5.326,-9.22018192249481
5.332,-9.23281032725187
5.338,-9.24505619927104
5.344,-9.25691962384259
5.35,-9.26840085056883
5.356,-9.27950029264276
5.362,-9.29021852594203
5.368,-9.30055628794145
5.374,-9.31051447644697
5.38,-9.32009414815439
5.386,-9.32929651703615
5.392,-9.33812295255964
5.398,-9.34657497774058
5.404,-9.35465426703526
5.41,-9.36236264407542
5.416,-9.36970207924985
5.422,-9.37667468713667
5.428,-9.38328272379087
5.434,-9.38952858389123
5.44,-9.39541479775154
5.446,-9.40094402820064
5.452,-9.4061190673365
5.458,-9.41094283315933
5.464,-9.41541836608916
5.47,-9.41954882537341
5.476,-9.42333748539031
5.482,-9.42678773185405
5.488,-9.42990305792786
5.494,-9.43268706025162
5.5,-9.43514343489033
5.506,-9.43738423049759
5.512,-9.43928094572232
5.518,-9.44083435374131
5.524,-9.44204539911524
5.53,-9.44291519660108
5.536,-9.44344502974992
5.542,-9.44363634929402
5.548,-9.44349077132728
5.554,-9.44301007528383
5.56,-9.44219620172003
5.566,-9.44105124990564
5.572,-9.43957747522995
5.578,-9.43777728642993
5.584,-9.43565324264678
5.59,-9.43320805031845
5.596,-9.43044455991565
5.602,-9.42736576252921
5.608,-9.42397478631691
5.614,-9.42027489281817
5.62,-9.41626947314516
5.626,-9.41196204405916
5.632,-9.40735624394074
5.638,-9.40245582866314
5.644,-9.39726466737745
5.65,-9.39178673821906
5.656,-9.3860261239441
5.662,-9.37998700750511
5.668,-9.3736736675749
5.674,-9.36709047402751
5.68,-9.36024188338494
5.686,-9.35313243423854
5.692,-9.34576674265331
5.698,-9.33814949756357
5.704,-9.33028545616807
5.71,-9.32217943933234
5.716,-9.3138363270061
5.722,-9.30526105366268
5.728,-9.2964586037681
5.734,-9.28743400728605
5.74,-9.27819233522561
5.746,-9.26873869523761
5.752,-9.25907822726571
5.758,-9.24921609925739
5.764,-9.23915750294031
5.77,-9.22890764966862
5.776,-9.21847176634367
5.782,-9.20785509141354
5.788,-9.19706287095466
5.794,-9.18610035483942
5.8,-9.17497279299261
5.806,-9.16368543173958
5.812,-9.15224351024853
5.818,-9.14065225706926
5.824,-9.12891688677033
5.83,-9.11704259667632
5.836,-9.10503456370683
5.842,-9.09289794131889
5.848,-9.08063785655418
5.854,-9.06825940719269
5.86,-9.0557676590149
5.866,-9.04316764317469
5.872,-9.03046435368642
5.878,-9.01766274503008
5.884,-9.0047677298807
5.89,-8.99178417697001
5.896,-8.9787169090917
5.902,-8.96557070126592
5.908,-8.95235027908501
5.914,-8.93906031727068
5.92,-8.92570543848449
5.926,-8.91229021245049
5.932,-8.89881915547073
5.938,-8.8852967304473
5.944,-8.87172734756933
5.95,-8.85811536588794
5.956,-8.84446509609421
5.962,-8.83078080494841
5.968,-8.81706672200181
5.974,-8.80332704953733
5.98,-8.78956597707596
5.986,-8.77578770242803
5.992,-8.76199646222393
5.998,-8.74819657632308
6.004,-8.73439251276714
6.01,-8.72058898349451
6.016,-8.70679108665886
6.022,-8.69300452039549
6.028,-8.67923590740154
6.034,-8.66549329322881
6.04,-8.65178691921867
6.046,-8.6381304314688
6.052,-8.62454277907425
