"Freq [GHz]","dB(St(1,2)) []"
1,-17.7049070138522
1.006,-16.8300205557095
1.012,-14.9710720768477
1.018,-13.0288836919791
1.024,-11.17263683395
1.03,-9.62111421029401
1.036,-8.31335395817383
1.042,-7.21081602495097
1.048,-6.29396807555024
1.054,-5.53330666453901
1.06,-4.91387662296188
1.066,-4.41888342033957
1.072,-4.06850066623475
1.078,-3.74804312799292
1.084,-3.5550074142274
1.09,-3.43663570834935
1.096,-3.38524827981712
1.102,-3.38427649911019
1.108,-3.52787471073596
1.114,-3.62963354164596
1.12,-3.79969454048699
1.126,-4.02303490153924
1.132,-4.27525314370958
1.138,-4.55617283105671
1.144,-5.27996208681461
1.15,-5.25301869724827
1.156,-5.55731783471371
1.162,-5.9214248976464
1.168,-6.31204244713971
1.174,-6.7309931492847
1.18,-7.11873909318573
1.186,-7.54693284314403
1.192,-7.96692778495965
1.198,-8.42930078499002
1.204,-8.87401655180309
1.21,-9.36285390422815
1.216,-9.76075256840099
1.222,-10.2217577005257
1.228,-10.6819730627071
1.234,-11.1430315363525
1.24,-11.6044016931103
1.246,-12.0651640609373
1.252,-12.5242183998312
1.258,-12.9803298703629
1.264,-13.4321605229435
1.27,-13.8783770108744
1.276,-14.3185013379164
1.282,-14.749441221455
1.288,-15.1679231128925
1.294,-15.5753914264083
1.3,-15.9684163536247
1.306,-16.3450287398003
1.312,-16.7033571016782
1.318,-17.0399251271382
1.324,-17.3562045283119
1.33,-17.6480004004862
1.336,-17.9144750248374
1.342,-18.154550143109
1.348,-18.3671185107056
1.354,-18.5560157152432
1.36,-18.714005802574
1.366,-18.8467199917876
1.372,-18.9543917982269
1.378,-19.0384010430623
1.384,-19.1004912358385
1.39,-19.1426722713188
1.396,-19.1671981112638
1.402,-19.1766739104155
1.408,-19.1746413135683
1.414,-19.1690453370309
1.42,-19.233938249659
1.426,-18.9911785501032
1.432,-18.9890494325895
1.438,-18.9473633835142
1.444,-18.8950888419187
1.45,-18.8371211117174
1.456,-18.7754802399555
1.462,-18.7113736760262
1.468,-18.6456493219663
1.474,-18.5789428337452
1.48,-18.5117408603209
1.486,-18.4444150334344
1.492,-18.3772437508071
1.498,-18.3104279799513
1.504,-18.2441036695059
1.51,-18.1783519745134
1.516,-18.1132079266001
1.522,-18.0486679192902
1.528,-17.9846962502417
1.534,-17.9212308926671
1.54,-17.8581886263157
1.546,-17.7954696301766
1.552,-17.7329616180413
1.558,-17.6705435812102
1.564,-17.6010953798171
1.57,-17.5117999869672
1.576,-17.4243535356982
1.582,-17.3387129806885
1.588,-17.2548358215229
1.594,-17.1726801665395
1.6,-17.0922047769849
1.606,-17.0133690902214
1.612,-16.9361332205608
1.618,-16.860457936117
1.624,-16.7863046098532
1.63,-16.7136351427752
1.636,-16.6424118569617
1.642,-16.5725973558452
1.648,-16.5041543488505
1.654,-16.4370454371581
1.66,-16.3712328569854
1.666,-16.3066781763557
1.672,-16.2433419408313
1.678,-16.1811832631034
1.684,-16.1201593506
1.69,-16.0602249643277
1.696,-16.0013318008881
1.702,-15.9434277878174
1.708,-15.8864562798192
1.714,-15.8303551396424
1.72,-15.7750556816118
1.726,-15.720481447039
1.732,-15.6665467671409
1.738,-15.6131550477501
1.744,-15.5601966761328
1.75,-15.5075463952777
1.756,-15.4550599004039
1.762,-15.4025692595598
1.768,-15.3498764951174
1.774,-15.2967441881924
1.78,-15.242881084117
1.786,-15.1879189542992
1.792,-15.131373423257
1.798,-15.072573672796
1.804,-15.0105273633732
1.81,-14.9436382203827
1.816,-14.8690473261671
1.822,-14.7808475834667
1.828,-14.6640305501607
1.834,-14.4644054083783
1.84,-13.7056420501533
1.846,-15.8146844964942
1.852,-15.0039984736584
1.858,-14.7921345213061
1.864,-14.6616479227212
1.87,-14.5562347290105
1.876,-14.4605209600744
1.882,-14.3685272286545
1.888,-14.2774056596749
1.894,-14.1856048616478
1.9,-14.0921954828568
1.906,-13.9965814293871
1.912,-13.8983615653113
1.918,-13.797257512395
1.924,-13.6930734243654
1.93,-13.5856727671308
1.936,-13.4749653293946
1.942,-13.3609016409659
1.948,-13.2434741948537
1.954,-13.1227263443078
1.96,-12.9987707834971
1.966,-12.8718199124093
1.972,-12.7422292664657
1.978,-12.6105507889853
1.984,-12.4775825525317
1.99,-12.3443843429638
1.996,-12.2122098472478
2.002,-12.0823060934906
2.008,-11.9555807608537
2.014,-11.8322448052102
2.02,-11.7116294902809
2.026,-11.5923296637745
2.032,-11.4726237481179
2.038,-11.3509414087378
2.044,-11.2261617901401
2.05,-11.0976811277162
2.056,-10.9653217241211
2.062,-10.8291858241654
2.068,-10.6895232516335
2.074,-10.5466381825233
2.08,-10.4008341017548
2.086,-10.252386613706
2.092,-10.1015335100037
2.098,-9.94847426240078
2.104,-9.79337400807063
2.11,-9.63636924043075
2.116,-9.47757377852125
2.122,-9.31708437104403
2.128,-9.15425462403232
2.134,-8.98904175630582
2.14,-8.82217353393582
2.146,-8.65368246741329
2.152,-8.48360566037671
2.158,-8.31198549055651
2.164,-8.13887040149511
2.17,-7.96431582315005
2.176,-7.78838524223756
2.182,-7.61115144620641
2.188,-7.43269796800164
2.194,-7.25312076217526
2.2,-7.07253014620203
2.206,-6.89105304360699
2.212,-6.70883556676711
2.218,-6.52604597493038
2.224,-6.34287803206058
2.23,-6.15955475581621
2.236,-5.9763324501332
2.242,-5.7935045879583
2.248,-5.6114037959424
2.254,-5.43039281766765
2.26,-5.25075751059504
2.266,-5.08404045456466
2.272,-4.90025529492888
2.278,-4.72888286087272
2.284,-4.56184090809525
2.29,-4.39986659479535
2.296,-4.24390650884957
2.302,-4.09503654801417
2.308,-3.95445066190604
2.314,-3.8234529454958
2.32,-3.70343808078431
2.326,-3.59582023613472
2.332,-3.50142564282346
2.338,-3.43036577516145
2.344,-3.36743170041272
2.35,-3.32626564902032
2.356,-3.3060088045097
2.362,-3.30785578638025
2.368,-3.33292373517483
2.374,-3.38208166587382
2.38,-3.45587709170965
2.386,-3.55449009947209
2.392,-3.67771043125463
2.398,-3.82495268329665
2.404,-3.9956431965596
2.41,-4.18603940887592
2.416,-4.3979254467981
2.422,-4.62754912441436
2.428,-4.8729696655002
2.434,-5.13195359465799
2.44,-5.40217556109829
2.446,-5.68127652331126
2.452,-5.96688659186332
2.458,-6.25657819475992
2.464,-6.54754524419562
2.47,-6.83506262327499
2.476,-7.12819796157993
2.482,-7.42676356992782
2.488,-7.71186167985291
2.494,-7.99003446603109
2.5,-8.26095540966847
2.506,-8.52371187763263
2.512,-8.77746274322665
2.518,-9.02151176190068
2.524,-9.25531422910519
2.53,-9.47847189511965
2.536,-9.69072458950245
2.542,-9.89194025279596
2.548,-10.0821038625714
2.554,-10.2613055250754
2.56,-10.4297279898034
2.566,-10.5876338640035
2.572,-10.7353528163392
2.578,-10.8732690538199
2.584,-11.0018093332746
2.59,-11.1214317313506
2.596,-11.2326153499574
2.602,-11.3358510822836
2.608,-11.431633512585
2.614,-11.5204539746374
2.62,-11.6027947517263
2.626,-11.6791243668805
2.632,-11.7498938863262
2.638,-11.8155341416225
2.644,-11.8764537658704
2.65,-11.9330379356371
2.656,-11.9856477115471
2.662,-12.0346198755873
2.668,-12.0802671708777
2.674,-12.1228788589697
2.68,-12.1627215198133
2.686,-12.200040029742
2.692,-12.2350586627048
2.698,-12.2679822691929
2.704,-12.2989974956868
2.71,-12.3282740148859
2.716,-12.3559657434494
2.722,-12.3822120295089
2.728,-12.4071387968589
2.734,-12.4308596365835
2.74,-12.4534768400136
2.746,-12.4750823694256
2.752,-12.4957587648826
2.758,-12.5155799871543
2.764,-12.5346121978168
2.77,-12.552914478492
2.776,-12.5705394917932
2.782,-12.5875340869492
2.788,-12.6039398533319
2.794,-12.6197936252361
2.8,-12.63512794129
2.806,-12.64997146184
2.812,-12.6643493475551
2.818,-12.6782836023745
2.824,-12.691793383763
2.83,-12.704895283074
2.836,-12.7176035786431
2.842,-12.7299304640542
2.848,-12.7418862538467
2.854,-12.7534795687565
2.86,-12.764717502421
2.866,-12.7756057713191
2.872,-12.7861488495706
2.878,-12.7963500900805
2.884,-12.8062118333854
2.89,-12.8157355054409
2.896,-12.8249217054795
2.902,-12.833770284967
2.908,-12.8422804185982
2.914,-12.8504506681845
2.92,-12.8582790402148
2.926,-12.8657630378013
2.932,-12.8728997076612
2.938,-12.879685682729
2.944,-12.8861172209477
2.95,-12.8921902407408
2.956,-12.8979003536285
2.962,-12.90324289442
2.968,-12.9082129493791
2.974,-12.9128053827391
2.98,-12.9170148619169
2.986,-12.9208358817586
2.992,-12.9242627881335
2.998,-12.9272898011782
3.004,-12.9299110384846
3.01,-12.9321205385155
3.016,-12.9339122845282
3.022,-12.9352802292794
3.028,-12.93621832079
3.034,-12.9367205294405
3.04,-12.9367808766788
3.046,-12.9363934656197
3.052,-12.9355525138267
3.058,-12.9342523885688
3.064,-12.9324876448593
3.07,-12.9302530665892
3.076,-12.9275437110808
3.082,-12.9243549573995
3.088,-12.9206825587738
3.094,-12.9165226994855
3.1,-12.9118720566092
3.106,-12.9067278669881
3.112,-12.9010879998504
3.118,-12.8949510354802
3.124,-12.8883163503657
3.13,-12.8811842092575
3.136,-12.8735558645738
3.142,-12.865433663589
3.148,-12.8568211638398
3.154,-12.8477232571714
3.16,-12.8381463028301
3.166,-12.8280982699796
3.172,-12.8175888899828
3.178,-12.8066298187391
3.184,-12.7952348093008
3.19,-12.7834198949108
3.196,-12.7712035824972
3.202,-12.758607056535
3.208,-12.74565439303
3.214,-12.732372783198
3.22,-12.7187927661904
3.226,-12.7049484699699
3.232,-12.6908778591371
3.238,-12.6766229881771
3.244,-12.6622302582062
3.25,-12.6477506748663
3.256,-12.6367643321261
3.262,-12.6260177919676
3.268,-12.6156070168094
3.274,-12.6056340547009
3.28,-12.5962073189103
3.286,-12.5874418772472
3.292,-12.5794597503311
3.298,-12.5723902177547
3.304,-12.5663701307754
3.31,-12.5615442297905
3.316,-12.5580654644094
3.322,-12.5560953134121
3.328,-12.5558041012827
3.334,-12.5573713073041
3.34,-12.5609858624117
3.346,-12.5668464281035
3.352,-12.5751616507111
3.358,-12.5861503832377
3.364,-12.6000418657884
3.37,-12.6170758543605
3.376,-12.6375026864653
3.382,-12.6615832707435
3.388,-12.6895889864729
3.394,-12.7218014777108
3.4,-12.7585123258473
3.406,-12.8000225836584
3.412,-12.8466421536636
3.418,-12.8986889938198
3.424,-12.9564881344696
3.43,-13.0203704921238
3.436,-13.0906714682414
3.442,-13.1677293247632
3.448,-13.2518833328453
3.454,-13.3434716970497
3.46,-13.4428292641364
3.466,-13.5502850334547
3.472,-13.66615949454
3.478,-13.790761826576
3.484,-13.9243870034845
3.49,-14.0673128570642
3.496,-14.21979715827
3.502,-14.3820747828235
3.508,-14.5543550313231
3.514,-14.7368191753637
3.52,-14.9296182995317
3.526,-15.1328715042784
3.532,-15.3466645266085
3.538,-15.5710488244634
3.544,-15.8060411570868
3.55,-16.0516236781786
3.556,-16.307744542078
3.562,-16.574319006465
3.568,-16.8512309990395
3.574,-17.1383351011799
3.58,-17.4354588894104
3.586,-17.7424055661574
3.592,-18.0589568050471
3.598,-18.384875732976
3.604,-18.7199099712244
3.61,-19.063794660656
3.616,-19.4162554010671
3.622,-19.7770110414673
3.628,-20.1457762658625
3.634,-20.5222639273956
3.64,-20.9061870919016
3.646,-21.297260759601
3.652,-21.6952032403867
3.658,-22.0997371636671
3.664,-22.5105901078342
3.67,-22.9274948370043
3.676,-23.350189133721
3.682,-23.7784152158402
3.688,-24.2119187239285
3.694,-24.6504472623408
3.7,-25.0937484728804
3.706,-25.5415676148343
3.712,-25.9936446195156
3.718,-26.4497105816518
3.724,-26.9094836445567
3.73,-27.3726642317431
3.736,-27.8389295754448
3.742,-28.3079274937112
3.748,-28.7792693740485
3.754,-29.2525223352406
3.76,-29.7272005628522
3.766,-30.2027558514894
3.772,-30.6785674423435
3.778,-31.1539313224573
3.784,-31.6280492572267
3.79,-32.1000179638071
3.796,-32.5688190022992
3.802,-33.0333101618265
3.808,-33.4922193413687
3.814,-33.9441421522054
3.82,-34.3875446688602
3.826,-34.8207728821
3.832,-35.2420703996091
3.838,-35.6496057266253
3.844,-36.0415099720724
3.85,-36.4159250208169
3.856,-36.7710610949768
3.862,-37.1052612790078
3.868,-37.4170691792133
3.874,-37.7052946859848
3.88,-37.9690721028651
3.886,-38.2079049590253
3.892,-38.4216927621906
3.898,-38.6107367127752
3.904,-38.7757237134733
3.91,-38.9176904479346
3.916,-39.0379714080985
3.922,-39.1381361560684
3.928,-39.2199216328652
3.934,-39.2851650042676
3.94,-39.3357415637886
3.946,-39.3735108816834
3.952,-39.4002729830557
3.958,-39.4177350802593
3.964,-39.4274884063385
3.97,-39.4309940411328
3.976,-39.4295762686405
3.982,-39.4244218947928
3.988,-39.4165840175868
3.994,-39.4069889091203
4,-39.3964448867698
4.006,-39.3856522793105
4.012,-39.3752138083459
4.018,-39.3656448926259
4.024,-39.3573835375401
4.03,-39.3507995943956
4.036,-39.3462032670834
4.042,-39.343852811825
4.048,-39.3439614235759
4.054,-39.3467033347825
4.06,-39.3522191723888
4.066,-39.3606206304593
4.072,-39.3719945210548
4.078,-39.3864062670156
4.084,-39.4039028985358
4.09,-39.4245156119206
4.096,-39.4482619444663
4.102,-39.47514761452
4.108,-39.5051680708163
4.114,-39.5383097903777
4.12,-39.574551359747
4.126,-39.6138643701619
4.132,-39.6562141535224
4.138,-39.7015603826362
4.144,-39.7498575562533
4.15,-39.8010553867791
4.156,-39.8550991062691
4.162,-39.9119297043148
4.168,-39.9714841097025
4.174,-40.0336953262318
4.18,-40.0984925317894
4.186,-40.1658011486626
4.192,-40.2355428921143
4.198,-40.3076358034181
4.204,-40.3819942728378
4.21,-40.4585290574231
4.216,-40.5371472979589
4.222,-40.6177525389464
4.228,-40.7002447550931
4.234,-40.7845203874334
4.24,-40.8704723918899
4.246,-40.9579903028055
4.252,-41.0469603137182
4.258,-41.1372653774129
4.264,-41.2287853270567
4.27,-41.3213970200026
4.276,-41.4149745056213
4.282,-41.5093892182983
4.288,-41.6045101964885
4.294,-41.7002043284736
4.3,-41.7963366251954
4.306,-41.8927705202448
4.312,-41.9893681967753
4.318,-42.085990940772
4.324,-42.1824995197416
4.33,-42.278754585512
4.336,-42.3746170994231
4.342,-42.4699487777746
4.348,-42.5646125549734
4.354,-42.6584730613942
4.36,-42.7513971125496
4.366,-42.8432542057666
4.372,-42.9339170201953
4.378,-43.023261915646
4.384,-43.1111694254759
4.39,-43.1975247385365
4.396,-43.2822181650603
4.402,-43.3651455813159
4.408,-43.4462088479132
4.414,-43.5253161967842
4.42,-43.6023825821191
4.426,-43.6773299908914
4.432,-43.750087709059
4.438,-43.8205925400731
4.444,-43.888788972956
4.45,-43.9546292979021
4.456,-44.018073668104
4.462,-44.0790901072869
4.468,-44.137654463227
4.474,-44.1937503083188
4.48,-44.2473687890158
4.486,-44.2985084266864
4.492,-44.3471748730762
4.498,-44.3933806241435
4.504,-44.4371446965188
4.51,-44.4784922712214
4.516,-44.517454309549
4.522,-44.5540671462259
4.528,-44.5883720649682
4.534,-44.620414861589
4.54,-44.650245399643
4.546,-44.6779171634022
4.552,-44.7034868126726
4.558,-44.7270137436199
4.564,-44.748559659388
4.57,-44.7681881538677
4.576,-44.785964311535
4.582,-44.8019543258203
4.588,-44.8162251380246
4.594,-44.8288440983548
4.6,-44.8398786502312
4.606,-44.8493960386247
4.612,-44.8574630428169
4.618,-44.8641457336466
4.624,-44.8695092550134
4.63,-44.8736176291524
4.636,-44.8765335849781
4.642,-44.8783184086137
4.648,-44.8790318150773
4.654,-44.8787318399836
4.66,-44.8774747500379
4.666,-44.8753149710456
4.672,-44.8723050321289
4.678,-44.8684955248363
4.684,-44.8639350758383
4.69,-44.8586703319308
4.696,-44.8527459561035
4.702,-44.8462046334822
4.708,-44.839087086007
4.714,-44.8314320947745
4.72,-44.823276529035
4.726,-44.814655380907
4.732,-44.8056018049396
4.738,-44.7961471617227
4.744,-44.7863210648145
4.75,-44.7761514303219
4.756,-44.7656645285319
4.762,-44.754885037056
4.768,-44.743836095005
4.774,-44.7325393577673
4.78,-44.7210150520135
4.786,-44.7092820305991
4.792,-44.6973578270772
4.798,-44.6852587095767
4.804,-44.6729997338353
4.81,-44.6605947952101
4.816,-44.6480566795194
4.822,-44.6353971125952
4.828,-44.6226268084497
4.834,-44.6097555159817
4.84,-44.596792064167
4.846,-44.5837444056931
4.852,-44.5706196590142
4.858,-44.5574241488146
4.864,-44.5441634448805
4.87,-44.5308423993878
4.876,-44.517465182625
4.882,-44.5040353171723
4.888,-44.4905557105698
4.894,-44.4770286865066
4.9,-44.4634560145705
4.906,-44.4498389385993
4.912,-44.4361782036775
4.918,-44.4224740818234
4.924,-44.408726396415
4.93,-44.3949345454001
4.936,-44.38109752334
4.942,-44.3672139423353
4.948,-44.3532820518797
4.954,-44.339299757691
4.96,-44.3252646395653
4.966,-44.3111739682997
4.972,-44.2970247217296
4.978,-44.2828135999221
4.984,-44.2685370395713
4.99,-44.254191227633
4.996,-44.2397721142417
5.002,-44.225275424947
5.008,-44.210696672307
5.014,-44.1960311668748
5.02,-44.1812740276115
5.026,-44.1664201917606
5.032,-44.1514644242139
5.038,-44.1364013263996
5.044,-44.1212253447228
5.05,-44.1059307785847
5.056,-44.0905117880081
5.062,-44.0749624008936
5.068,-44.0592765199317
5.074,-44.0434479291933
5.08,-44.0274703004197
5.086,-44.0113371990345
5.092,-43.9950420898953
5.098,-43.9785783428064
5.104,-43.9619392378067
5.11,-43.9451179702536
5.116,-43.9281076557164
5.122,-43.9109013346938
5.128,-43.8934919771727
5.134,-43.8758724870381
5.14,-43.8580357063496
5.146,-43.8399744194943
5.152,-43.8216813572291
5.158,-43.8031492006219
5.164,-43.7843705849007
5.17,-43.765338103222
5.176,-43.7460443103651
5.182,-43.7264817263605
5.188,-43.7066428400609
5.194,-43.6865201126598
5.2,-43.6661059811663
5.206,-43.6453928618386
5.212,-43.6243731535844
5.218,-43.6030392413313
5.224,-43.5813834993718
5.23,-43.5593982946859
5.236,-43.5370759902458
5.242,-43.5144089483051
5.248,-43.4913895336735
5.254,-43.4680101169814
5.26,-43.4442630779337
5.266,-43.4201408085556
5.272,-43.3956357164296
5.278,-43.3707402279261
5.284,-43.3454467914253
5.29,-43.3197478805323
5.296,-43.2936359972829
5.302,-43.2671036753402
5.308,-43.2401434831812
5.314,-43.2127480272697
5.32,-43.1849099552162
5.326,-43.1566219589206
5.332,-43.1278767776968
5.338,-43.0986672013756
5.344,-43.0689860733831
5.35,-43.0388262937918
5.356,-43.0081808223412
5.362,-42.9770426814242
5.368,-42.945404959035
5.374,-42.9132608116761
5.38,-42.880603467219
5.386,-42.8474262277154
5.392,-42.8137224721547
5.398,-42.7794856591625
5.404,-42.7447093296376
5.41,-42.709387109321
5.416,-42.6735127112943
5.422,-42.6370799384015
5.428,-42.6000826855915
5.434,-42.5625149421749
5.44,-42.5243707939926
5.446,-42.4856444254904
5.452,-42.4463301216963
5.458,-42.4064222700963
5.464,-42.3659153624043
5.47,-42.324803996222
5.476,-42.2830828765867
5.482,-42.2407468174008
5.488,-42.1977907427424
5.494,-42.1542096880518
5.5,-42.109998801192
5.506,-42.0961922537606
5.512,-42.082295852089
5.518,-42.068314843888
5.524,-42.054254474193
5.53,-42.0401199823437
5.536,-42.0259165990127
5.542,-42.0116495432854
5.548,-41.9973240197937
5.554,-41.9829452159055
5.56,-41.9685182989726
5.566,-41.9540484136379
5.572,-41.9395406792051
5.578,-41.925000187071
5.584,-41.9104319982228
5.59,-41.8958411408019
5.596,-41.8812326077341
5.602,-41.8666113544288
5.608,-41.851982296547
5.614,-41.8373503078388
5.62,-41.8227202180522
5.626,-41.8080968109122
5.632,-41.7934848221712
5.638,-41.7788889377311
5.644,-41.7643137918369
5.65,-41.7497639653419
5.656,-41.7352439840441
5.662,-41.7207583170943
5.668,-41.7063113754748
5.674,-41.6919075105481
5.68,-41.6775510126763
5.686,-41.6632461099092
5.692,-41.6489969667412
5.698,-41.6348076829359
5.704,-41.6206822924177
5.71,-41.6066247622289
5.716,-41.5926389915527
5.722,-41.5787288107994
5.728,-41.564897980755
5.734,-41.5511501917928
5.74,-41.5374890631433
5.746,-41.523918142225
5.752,-41.510440904032
5.758,-41.4970607505776
5.764,-41.4837810103938
5.77,-41.4706049380833
5.776,-41.457535713924
5.782,-41.4445764435238
5.788,-41.4317301575243
5.794,-41.4189998113522
5.8,-41.4063882850156
5.806,-41.393898382946
5.812,-41.3815328338811
5.818,-41.3692942907902
5.824,-41.3571853308377
5.83,-41.3452084553853
5.836,-41.3333660900294
5.842,-41.3216605846736
5.848,-41.3100942136338
5.854,-41.2986691757741
5.86,-41.2873875946727
5.866,-41.2762515188155
5.872,-41.2652629218155
5.878,-41.2544237026576
5.884,-41.2437356859658
5.89,-41.2332006222922
5.896,-41.2228201884252
5.902,-41.2125959877167
5.908,-41.2025295504252
5.914,-41.1926223340747
5.92,-41.1828757238265
5.926,-41.1732910328637
5.932,-41.1638695027855
5.938,-41.1546123040109
5.944,-41.1455205361902
5.95,-41.1365952286223
5.956,-41.1278373406766
5.962,-41.1192477622184
5.968,-41.1108273140359
5.974,-41.1025767482678
5.98,-41.0944967488306
5.986,-41.0865879318422
5.992,-41.0788508460438
5.998,-41.0712859732156
6.004,-41.0638937285871
6.01,-41.0566744612401
6.016,-41.0496284545025
6.022,-41.0427559263333
6.028,-41.0360570296961
6.034,-41.0295318529202
6.04,-41.0231804200495
6.046,-41.0170026911761
6.052,-41.0109985627589
6.058,-41.0051678679257
