"Freq [GHz]","dB(St(3,3)) []"
1,-8.69539096289779
1.006,-8.4307667252034
1.012,-8.19636670407842
1.018,-7.98951731349036
1.024,-7.80359241252439
1.03,-7.63815380419415
1.036,-7.48962477229016
1.042,-7.35520018071243
1.048,-7.23317929309525
1.054,-7.12142594329951
1.06,-7.01864959448304
1.066,-6.92348017626692
1.072,-6.83479009717359
1.078,-6.7515606204507
1.084,-6.67322294251277
1.09,-6.59905961493639
1.096,-6.52853981554381
1.102,-6.46119430660518
1.108,-6.39692543991303
1.114,-6.33493590181758
1.12,-6.27527108235154
1.126,-6.21768156013695
1.132,-6.16192035215905
1.138,-6.10783295557143
1.144,-6.20845366658095
1.15,-6.02234461125969
1.156,-5.95516953405936
1.162,-5.905824447806
1.168,-5.85785316382724
1.174,-5.80536363006174
1.18,-5.76779309312109
1.186,-5.72112633549707
1.192,-5.68062422887906
1.198,-5.63058540932366
1.204,-5.58840186608849
1.21,-5.53804138626677
1.216,-5.5095444210744
1.222,-5.46798113504186
1.228,-5.42759127394847
1.234,-5.38773578418433
1.24,-5.34827848026839
1.246,-5.30916038367094
1.252,-5.27034590991919
1.258,-5.23180842521254
1.264,-5.19352211028974
1.27,-5.15544585374902
1.276,-5.11741291069654
1.282,-5.07986991467807
1.288,-5.04214248372998
1.294,-5.00462380153749
1.3,-4.96718798273846
1.306,-4.92982079607135
1.312,-4.8925185935121
1.318,-4.85513907021858
1.324,-4.81795117621528
1.33,-4.78072779817884
1.336,-4.74350423922937
1.342,-4.70626440145496
1.348,-4.66892743255578
1.354,-4.63212608495074
1.36,-4.594671659097
1.366,-4.55733905691185
1.372,-4.51998534888747
1.378,-4.48259080903044
1.384,-4.44514338533
1.39,-4.40762871111331
1.396,-4.37002206884508
1.402,-4.33226885266337
1.408,-4.29421317017276
1.414,-4.255174885481
1.42,-4.20383827125449
1.426,-4.18755568632456
1.432,-4.14798805548871
1.438,-4.1097216500073
1.444,-4.07182356172881
1.45,-4.03408126357931
1.456,-3.99642971982403
1.462,-3.95884591871411
1.468,-3.92132238747682
1.474,-3.88385840503855
1.48,-3.84645648299361
1.486,-3.8091207489447
1.492,-3.77185612095436
1.498,-3.73466784939842
1.504,-3.69756124580358
1.51,-3.66054151470571
1.516,-3.62361364641195
1.522,-3.58678234808914
1.528,-3.55005200030822
1.534,-3.51342663126397
1.54,-3.47690990369293
1.546,-3.4405051111305
1.552,-3.40421518112838
1.558,-3.36804268367563
1.564,-3.33246389795798
1.57,-3.29843234997124
1.576,-3.26452450642887
1.582,-3.2307349637651
1.588,-3.19705809771287
1.594,-3.16348805604426
1.6,-3.13001875117605
1.606,-3.09664385265249
1.612,-3.06335677952096
1.618,-3.03015069262113
1.624,-2.9970184868137
1.63,-2.96395278318229
1.636,-2.93094592125133
1.642,-2.89798995127444
1.648,-2.86507662666275
1.654,-2.8321973966426
1.66,-2.79934339925671
1.666,-2.7665054548569
1.672,-2.73367406028016
1.678,-2.70083938395946
1.684,-2.66799126229989
1.69,-2.63511919776017
1.696,-2.60221235922941
1.702,-2.56925958549837
1.708,-2.53624939291974
1.714,-2.50316998877437
1.72,-2.47000929247173
1.726,-2.43675496761318
1.732,-2.40339446929146
1.738,-2.36991511304807
1.744,-2.33630417508844
1.75,-2.30254903839943
1.756,-2.26863740761502
1.762,-2.23455762918448
1.768,-2.20029917703199
1.774,-2.16585340611668
1.78,-2.13121475485985
1.786,-2.09638273066501
1.792,-2.06136532887198
1.798,-2.0261852323391
1.804,-1.99089180444587
1.81,-1.95558629197629
1.816,-1.92048091426615
1.822,-1.88606011442413
1.828,-1.85363291415517
1.834,-1.82813210548834
1.84,-1.85624683171295
1.846,-1.62847373883199
1.852,-1.64720299575215
1.858,-1.61880223173586
1.864,-1.58282198483167
1.87,-1.54381018842794
1.876,-1.50298729177479
1.882,-1.46079324696159
1.888,-1.41740323786592
1.894,-1.37288006611345
1.9,-1.32723019365859
1.906,-1.28042749336972
1.912,-1.23242430167106
1.918,-1.18315685893245
1.924,-1.13254804197712
1.93,-1.08050870655927
1.936,-1.02693829533014
1.942,-0.971725070107997
1.948,-0.914746188120923
1.954,-0.855867775520026
1.96,-0.794945120387247
1.966,-0.731823093580349
1.972,-0.666336899197015
1.978,-0.598313250814105
1.984,-0.527572059949836
1.99,-0.453928704881998
1.996,-0.377196916837667
2.002,-0.297192273153866
2.008,-0.213736221345607
2.014,-0.126660474936831
2.02,-0.0358115264204772
2.026,0.0589450748289322
2.032,0.157721115462902
2.038,0.260603266918491
2.044,0.367652268562001
2.05,0.478904144439312
2.056,0.594373694527536
2.062,0.71406027424702
2.068,0.837955608817673
2.074,0.966053125843873
2.08,1.09835808043027
2.086,1.23489763561614
2.092,1.37573007132817
2.098,1.52095242528039
2.104,1.67070609124025
2.11,1.82518016811702
2.116,1.98461261683071
2.122,2.14928949810342
2.128,2.31938980171041
2.134,2.49448406831128
2.14,2.67450716666549
2.146,2.85942958089892
2.152,3.04920845326359
2.158,3.24378734494998
2.164,3.44309596436411
2.17,3.64704983295391
2.176,3.85554985430258
2.182,4.06848174782232
2.188,4.28571530400485
2.194,4.50710341385627
2.2,4.73248082092517
2.206,4.96166254033987
2.212,5.1944418856933
2.218,5.43058804177989
2.224,5.66984311964931
2.23,5.91191863120764
2.236,6.15649132578755
2.242,6.40319834647492
2.248,6.65163171095892
2.254,6.90133231485852
2.26,7.15178485017917
2.266,7.40086626244375
2.272,7.65244641432517
2.278,7.90131912727247
2.284,8.14809677179369
2.29,8.39184516149663
2.296,8.6315132098322
2.302,8.86593155354183
2.308,9.09380922169205
2.314,9.31373363297615
2.32,9.52417628707506
2.326,9.72350941727327
2.332,9.91008365126447
2.338,10.0812092546121
2.344,10.2368862548172
2.35,10.3740075712204
2.356,10.4911138175953
2.362,10.5866317636522
2.368,10.6591663490673
2.374,10.7075718291203
2.38,10.7310059378554
2.386,10.728970374064
2.392,10.7013348437145
2.398,10.6483433587492
2.404,10.5706241631636
2.41,10.4689477815376
2.416,10.3447438969323
2.422,10.1993206843903
2.428,10.0342770912145
2.434,9.85130044254287
2.44,9.65211763107463
2.446,9.43844343187146
2.452,9.21193225617478
2.458,8.97412043929804
2.464,8.72626329381247
2.47,8.46744492574395
2.476,8.20724112264729
2.482,7.94094303817252
2.488,7.66723349054925
2.494,7.38943245511929
2.5,7.10834110494292
2.506,6.82461720867269
2.512,6.53882715962947
2.518,6.25145608893778
2.524,5.96291610671906
2.53,5.6735543820587
2.536,5.38366085195231
2.542,5.09347536550021
2.548,4.80319417121571
2.554,4.51297572222916
2.56,4.22294581337102
2.566,3.9332020863268
2.572,3.64381795090233
2.578,3.35484597583021
2.584,3.06632080387699
2.59,2.77826164479843
2.596,2.4906743969383
2.602,2.20355344463275
2.608,1.91688317451111
2.614,1.63063924956021
2.62,1.34478967563482
2.626,1.05929569106619
2.632,0.774112506219954
2.638,0.489189916323281
2.644,0.204472807641435
2.65,-0.0800984258559094
2.656,-0.364587540840246
2.662,-0.649062165833231
2.668,-0.933593575201457
2.674,-1.21825650766413
2.68,-1.50312902259797
2.686,-1.78829238875034
2.692,-2.07383100108893
2.698,-2.35983232244267
2.704,-2.6463868473461
2.71,-2.93358808610543
2.716,-3.2215325675808
2.722,-3.51031985953838
2.728,-3.8000526056889
2.734,-4.09083657870442
2.74,-4.38278074860671
2.746,-4.67599736595453
2.752,-4.97060205923172
2.758,-5.26671394575266
2.764,-5.56445575525924
2.77,-5.86395396517622
2.776,-6.16533894621647
2.782,-6.46874511666833
2.788,-6.77431110323892
2.794,-7.08217990574873
2.8,-7.39249906224164
2.806,-7.70542081015671
2.812,-8.02110223805244
2.818,-8.33970542092248
2.824,-8.66139753031671
2.83,-8.9863509081858
2.836,-9.3147430904783
2.842,-9.64675676288585
2.848,-9.98257962655638
2.854,-10.3224041458331
2.86,-10.6664271428219
2.866,-11.0148491944532
2.872,-11.3678737761935
2.878,-11.7257060820846
2.884,-12.0885514325726
2.89,-12.4566131587239
2.896,-12.8300898227786
2.902,-13.2091715992223
2.908,-13.5940355961028
2.914,-13.9848398414529
2.92,-14.3817155925713
2.926,-14.7847575449511
2.932,-15.1940114217735
2.938,-15.6094583145304
2.944,-16.0309950236801
2.95,-16.4584095235261
2.956,-16.8913505645275
2.962,-17.3292903596666
2.968,-17.7714793313796
2.974,-18.2168921052657
2.98,-18.664164452249
2.986,-19.1115218797747
2.992,-19.5567022833159
2.998,-19.9968777432882
3.004,-20.4285843829243
3.01,-20.8476741569651
3.016,-21.2493079794602
3.022,-21.628014312693
3.028,-21.9778386715869
3.034,-22.2926039202944
3.04,-22.5662853963262
3.046,-22.7934780012454
3.052,-22.9698991222595
3.058,-23.092842938305
3.064,-23.1614930552536
3.07,-23.1770215517842
3.076,-23.1424504247753
3.082,-23.0623088567333
3.088,-22.9421639766226
3.094,-22.7881186562382
3.1,-22.6063569741015
3.106,-22.402787800137
3.112,-22.1828041350109
3.118,-21.9511506700729
3.124,-21.7118780975823
3.13,-21.4683585600795
3.136,-21.2233387634214
3.142,-20.9790122786571
3.148,-20.7370980679463
3.154,-20.4989170531165
3.16,-20.2654621728489
3.166,-20.0374598681101
3.172,-19.8154225076447
3.178,-19.5996921673587
3.184,-19.3904766299614
3.19,-19.1878786428432
3.196,-18.9919194807756
3.202,-18.8025577829057
3.208,-18.6197045184786
3.214,-18.443234810593
3.22,-18.2729972271232
3.226,-18.1088210398786
3.232,-17.9505218597299
3.238,-17.7979059768793
3.244,-17.6507736705301
3.25,-17.5089216992093
3.256,-17.367916395797
3.262,-17.2308377654595
3.268,-17.0972933717439
3.274,-16.9669036523804
3.28,-16.8393022318516
3.286,-16.7141360759567
3.292,-16.5910655405593
3.298,-16.4697643520851
3.304,-16.3499195461634
3.31,-16.2312313822766
3.316,-16.1134132458357
3.322,-15.9961915443018
3.328,-15.8793056005613
3.334,-15.7625075445357
3.34,-15.6455622028791
3.346,-15.5282469865692
3.352,-15.4103517772716
3.358,-15.2916788156922
3.364,-15.1720425989022
3.37,-15.0512697991109
3.376,-14.9291992239112
3.382,-14.8056818480456
3.388,-14.6805809596904
3.394,-14.5537724805559
3.4,-14.4251455390222
3.406,-14.2946033989355
3.412,-14.1620648726583
3.418,-14.027466373122
3.424,-13.890764781198
3.43,-13.751941313232
3.436,-13.611006555375
3.442,-13.4680067660674
3.448,-13.3230314084393
3.454,-13.1762216288645
3.46,-13.0277790187534
3.466,-12.8779734774046
3.472,-12.7271483772558
3.478,-12.5757206466503
3.484,-12.4241730676141
3.49,-12.2730363715289
3.496,-12.1228599377805
3.502,-11.9741721954087
3.508,-11.8274348900947
3.514,-11.682998331
3.52,-11.5410663096613
3.526,-11.4016785041728
3.532,-11.2647146524624
3.538,-11.1299196354875
3.544,-10.9969437321883
3.55,-10.8653894517752
3.556,-10.7348562681853
3.562,-10.6049767939329
3.568,-10.4754411948114
3.574,-10.3460097020725
3.58,-10.2165151577473
3.586,-10.0868584607717
3.592,-9.95699980299042
3.598,-9.82694807733238
3.604,-9.69675014639988
3.61,-9.56648100043363
3.616,-9.43623531368569
3.622,-9.30612055034308
3.628,-9.1762515546356
3.634,-9.04674644864484
3.64,-8.91772362009081
3.646,-8.78929958258134
3.652,-8.66158751243286
3.658,-8.53469629641643
3.664,-8.40872995623264
3.67,-8.28378734436083
3.676,-8.15996203057343
3.682,-8.03734231852726
3.688,-7.91601134775588
3.694,-7.79604724867713
3.7,-7.67752332754842
3.706,-7.5605082652634
3.712,-7.4450663190152
3.718,-7.33125751959156
3.724,-7.21913785975979
3.73,-7.10875947111637
3.736,-7.00017078811916
3.742,-6.89341669894838
3.748,-6.78853868346626
3.754,-6.68557493895351
3.76,-6.58456049455341
3.766,-6.4855273154977
3.772,-6.38850439825497
3.778,-6.29351785775604
3.784,-6.20059100782776
3.79,-6.10974443592014
3.796,-6.02099607314846
3.802,-5.93436126059999
3.808,-5.84985281277603
3.814,-5.76748107895942
3.82,-5.68725400321555
3.826,-5.60917718365364
3.832,-5.53325393149542
3.838,-5.45948533042114
3.844,-5.38787029658785
3.85,-5.31840563964404
3.856,-5.25108612499649
3.862,-5.18590453752125
3.868,-5.12285174685039
3.874,-5.06191677431033
3.88,-5.00308686153557
3.886,-4.94634754073483
3.892,-4.89168270654304
3.898,-4.83907468935538
3.904,-4.78850433000497
3.91,-4.7399510556176
3.916,-4.69339295645175
3.922,-4.64880686351261
3.928,-4.60616842671263
3.934,-4.56545219334005
3.94,-4.52663168658891
3.946,-4.48967948390033
3.952,-4.45456729486468
3.958,-4.4212660384369
3.964,-4.38974591922315
3.97,-4.35997650260551
3.976,-4.33192678848192
3.982,-4.30556528341149
3.988,-4.28086007096959
3.994,-4.25777888013281
4,-4.23628915153064
4.006,-4.21635810141827
4.012,-4.19795278324288
4.018,-4.1810401466939
4.024,-4.1655870941461
4.03,-4.15156053442201
4.036,-4.13892743381813
4.042,-4.12765486435596
4.048,-4.11771004923535
4.054,-4.10906040548302
4.06,-4.10167358380349
4.066,-4.09551750565328
4.072,-4.09056039757129
4.078,-4.0867708228101
4.084,-4.08411771032251
4.09,-4.08257038116714
4.096,-4.08209857240463
4.102,-4.08267245856298
4.108,-4.08426267075624
4.114,-4.08684031354582
4.12,-4.09037697963724
4.126,-4.09484476250841
4.132,-4.10021626706745
4.138,-4.1064646184395
4.144,-4.11356346898254
4.15,-4.12148700363225
4.156,-4.13020994367539
4.162,-4.13970754904989
4.168,-4.14995561926839
4.174,-4.16093049305987
4.18,-4.17260904682176
4.186,-4.18496869197208
4.192,-4.19798737128854
4.198,-4.21164355431814
4.204,-4.22591623193777
4.21,-4.24078491014284
4.216,-4.25622960313755
4.222,-4.27223082579687
4.228,-4.28876958556681
4.234,-4.30582737386607
4.24,-4.32338615704863
4.246,-4.34142836698327
4.252,-4.35993689130302
4.258,-4.37889506337378
4.264,-4.39828665202841
4.27,-4.41809585110952
4.276,-4.43830726886102
4.282,-4.45890591720571
4.288,-4.47987720094359
4.294,-4.50120690690248
4.3,-4.52288119307076
4.306,-4.54488657773884
4.312,-4.56720992867444
4.318,-4.58983845235412
4.324,-4.6127596832719
4.33,-4.63596147334354
4.336,-4.65943198142364
4.342,-4.68315966295093
4.348,-4.70713325973543
4.354,-4.73134178990015
4.36,-4.75577453798816
4.366,-4.78042104524506
4.372,-4.80527110008559
4.378,-4.83031472875194
4.384,-4.85554218617067
4.39,-4.88094394701401
4.396,-4.90651069697059
4.402,-4.93223332423007
4.408,-4.95810291118511
4.414,-4.98411072635407
4.42,-5.01024821652666
4.426,-5.03650699913481
4.432,-5.06287885485026
4.438,-5.08935572041017
4.444,-5.11592968167149
4.45,-5.14259296689478
4.456,-5.16933794025772
4.462,-5.19615709559833
4.468,-5.22304305038778
4.474,-5.24998853993236
4.48,-5.27698641180421
4.486,-5.30402962050007
4.492,-5.33111122232727
4.498,-5.3582243705161
4.504,-5.38536231055768
4.51,-5.41251837576602
4.516,-5.43968598306341
4.522,-5.46685862898779
4.528,-5.49402988592096
4.534,-5.52119339853612
4.54,-5.54834288046364
4.546,-5.57547211117352
4.552,-5.60257493307303
4.558,-5.62964524881814
4.564,-5.65667701883708
4.57,-5.68366425906443
4.576,-5.71060103888406
4.582,-5.73748147927917
4.588,-5.76429975118747
4.594,-5.79105007405968
4.6,-5.81772671461939
4.606,-5.84432398582183
4.612,-5.87083624600976
4.618,-5.89725789826368
4.624,-5.92358338994411
4.63,-5.94980721242321
4.636,-5.97592390100292
4.642,-6.00192803501668
4.648,-6.02781423811147
4.654,-6.05357717870703
4.66,-6.07921157062847
4.666,-6.10471217390874
4.672,-6.13007379575678
4.678,-6.15529129168737
4.684,-6.18035956680811
4.69,-6.20527357725876
4.696,-6.23002833179831
4.702,-6.25461889353427
4.708,-6.27904038178891
4.714,-6.3032879740967
4.72,-6.32735690832695
4.726,-6.35124248492539
4.732,-6.37494006926822
4.738,-6.39844509412172
4.744,-6.42175306220048
4.75,-6.4448595488169
4.756,-6.46776020461425
4.762,-6.49045075837572
4.768,-6.5129270199011
4.774,-6.53518488294299
4.78,-6.55722032819397
4.786,-6.57902942631592
4.792,-6.6006083410028
4.798,-6.62195333206752
4.804,-6.64306075854396
4.81,-6.66392708179452
4.816,-6.68454886861396
4.822,-6.70492279431986
4.828,-6.72504564582003
4.834,-6.74491432464736
4.84,-6.76452584995241
4.846,-6.78387736144404
4.852,-6.80296612226858
4.858,-6.821789521818
4.864,-6.84034507845775
4.87,-6.8586304421649
4.876,-6.8766433970677
4.882,-6.89438186387749
4.888,-6.91184390220449
4.894,-6.92902771274905
4.9,-6.94593163936031
4.906,-6.96255417095455
4.912,-6.97889394328582
4.918,-6.99494974056196
4.924,-7.01072049689936
4.93,-7.02620529761036
4.936,-7.04140338031769
4.942,-7.05631413589071
4.948,-7.07093710919874
4.954,-7.08527199967757
4.96,-7.09931866170532
4.966,-7.11307710478468
4.972,-7.12654749352926
4.978,-7.13973014745186
4.984,-7.15262554055371
4.99,-7.16523430071368
4.996,-7.17755720887762
5.002,-7.1895951980482
5.008,-7.20134935207629
5.014,-7.21282090425571
5.02,-7.22401123572354
5.026,-7.23492187366872
5.032,-7.24555448935243
5.038,-7.25591089594418
5.044,-7.2659930461779
5.05,-7.27580302983312
5.056,-7.28534307104654
5.062,-7.29461552545991
5.068,-7.30362287721049
5.074,-7.31236773577076
5.08,-7.32085283264448
5.086,-7.32908101792641
5.092,-7.33705525673353
5.098,-7.3447786255156
5.104,-7.3522543082534
5.11,-7.35948559255297
5.116,-7.36647586564462
5.122,-7.37322861029528
5.128,-7.3797474006432
5.134,-7.38603589796385
5.14,-7.3920978463761
5.146,-7.39793706849753
5.152,-7.40355746105799
5.158,-7.40896299048021
5.164,-7.41415768843639
5.17,-7.41914564738949
5.176,-7.42393101612767
5.182,-7.42851799530056
5.188,-7.43291083296534
5.194,-7.43711382015087
5.2,-7.44113128644751
5.206,-7.44496759563027
5.212,-7.44862714132255
5.218,-7.45211434270745
5.224,-7.45543364029328
5.23,-7.45858949173981
5.236,-7.46158636775113
5.242,-7.46442874804097
5.248,-7.46712111737577
5.254,-7.46966796170069
5.26,-7.47207376435298
5.266,-7.47434300236734
5.272,-7.47648014287705
5.278,-7.47848963961454
5.284,-7.48037592951474
5.29,-7.48214342942401
5.296,-7.48379653291738
5.302,-7.4853396072262
5.308,-7.48677699027819
5.314,-7.48811298785149
5.32,-7.48935187084388
5.326,-7.49049787265817
5.332,-7.49155518670457
5.338,-7.49252796402011
5.344,-7.4934203110055
5.35,-7.49423628727908
5.356,-7.49497990364752
5.362,-7.49565512019259
5.368,-7.49626584447311
5.374,-7.49681592984102
5.38,-7.49730917387016
5.386,-7.49774931689638
5.392,-7.49814004066727
5.398,-7.49848496709968
5.404,-7.49878765714298
5.41,-7.49905160974611
5.416,-7.49928026092595
5.422,-7.49947698293485
5.428,-7.49964508352475
5.434,-7.49978780530535
5.44,-7.49990832519372
5.446,-7.50000975395264
5.452,-7.50009513581495
5.458,-7.50016744819105
5.464,-7.50022960145671
5.47,-7.50028443881841
5.476,-7.50033473625317
5.482,-7.50038320252015
5.488,-7.5004324792409
5.494,-7.50048514104559
5.5,-7.50054369578213
5.506,-7.50127190709735
5.512,-7.50197693670026
5.518,-7.50265893315159
5.524,-7.50331804478692
5.53,-7.50395441964356
5.536,-7.5045682053864
5.542,-7.5051595492323
5.548,-7.50572859787332
5.554,-7.50627549739869
5.56,-7.50680039321539
5.566,-7.50730342996751
5.572,-7.5077847514542
5.578,-7.50824450054638
5.584,-7.50868281910198
5.59,-7.50909984787994
5.596,-7.50949572645269
5.602,-7.50987059311744
5.608,-7.51022458480587
5.614,-7.51055783699254
5.62,-7.51087048360189
5.626,-7.51116265691374
5.632,-7.5114344874675
5.638,-7.51168610396482
5.644,-7.51191763317098
5.65,-7.51212919981467
5.656,-7.51232092648656
5.662,-7.51249293353632
5.668,-7.51264533896833
5.674,-7.51277825833597
5.68,-7.51289180463457
5.686,-7.51298608819299
5.692,-7.51306121656394
5.698,-7.513117294413
5.704,-7.51315442340631
5.71,-7.51317270209721
5.716,-7.51317222581154
5.722,-7.51315308653201
5.728,-7.51311537278132
5.734,-7.51305916950451
5.74,-7.51298455795019
5.746,-7.5128916155511
5.752,-7.51278041580386
5.758,-7.51265102814808
5.764,-7.51250351784493
5.77,-7.5123379458554
5.776,-7.51215436871814
5.782,-7.51195283842729
5.788,-7.51173340231031
5.794,-7.511496102906
5.8,-7.51124097784293
5.806,-7.51096805971852
5.812,-7.51067737597886
5.818,-7.51036894879968
5.824,-7.51004279496864
5.83,-7.5096989257692
5.836,-7.50933734686648
5.842,-7.50895805819534
5.848,-7.50856105385105
5.854,-7.50814632198305
5.86,-7.50771384469199
5.866,-7.50726359793078
5.872,-7.50679555140981
5.878,-7.50630966850713
5.884,-7.50580590618397
5.89,-7.50528421490625
5.896,-7.50474453857263
5.902,-7.50418681444989
5.908,-7.50361097311627
5.914,-7.50301693841347
5.92,-7.50240462740834
5.926,-7.5017739503648
5.932,-7.50112481072721
5.938,-7.50045710511597
5.944,-7.49977072333643
5.95,-7.49906554840229
5.956,-7.49834145657449
5.962,-7.49759831741697
5.968,-7.49683599387052
5.974,-7.49605434234611
5.98,-7.49525321283914
5.986,-7.49443244906618
5.992,-7.49359188862575
5.998,-7.49273136318491
6.004,-7.49185069869338
6.01,-7.49094971562704
6.016,-7.49002822926292
6.022,-7.48908604998754
6.028,-7.48812298364086
6.034,-7.48713883189814
6.04,-7.48613339269187
6.046,-7.48510646067645
6.052,-7.4840578277379
6.058,-7.48298728355148
6.064,-7.48189461618976
6.07,-7.48077961278405
