"Freq [GHz]","dB(St(1,1)) []"
1,-3.06241334885028
1.006,-3.50156585204371
1.012,-3.87102431803126
1.018,-4.17391268667484
1.024,-4.41839421544268
1.03,-4.61152427210895
1.036,-4.7622780594625
1.042,-4.8779700325512
1.048,-4.96521578811371
1.054,-5.02926460336132
1.06,-5.07441330094963
1.066,-5.10408422389946
1.072,-5.12135322949784
1.078,-5.12768170796706
1.084,-5.12531835640594
1.09,-5.11550228550869
1.096,-5.09930649121515
1.102,-5.07764588089531
1.108,-5.05069006650842
1.114,-5.01994172188862
1.12,-4.98525484422307
1.126,-4.94712844544996
1.132,-4.90591443375668
1.138,-4.8619159860327
1.144,-4.81543656064809
1.15,-4.76660700161907
1.156,-4.71577171772327
1.162,-4.66310330382635
1.168,-4.6088335606389
1.174,-4.55317177235641
1.18,-4.49632139050538
1.186,-4.43848545743782
1.192,-4.37986682994698
1.198,-4.32066680828628
1.204,-4.26108339030257
1.21,-4.20130954082274
1.216,-4.14153160513883
1.222,-4.08192791263458
1.228,-4.02266758842882
1.234,-3.96390957926913
1.24,-3.90580189317524
1.246,-3.84848104706168
1.252,-3.79207171168234
1.258,-3.7366865376797
1.264,-3.68242613570559
1.27,-3.62937913560684
1.276,-3.57762173074058
1.282,-3.52016976533897
1.288,-3.47792548028443
1.294,-3.43063467545977
1.3,-3.38460995540066
1.306,-3.34005317912018
1.312,-3.29701167388706
1.318,-3.25550005065707
1.324,-3.21551973119162
1.33,-3.17706432922057
1.336,-3.14012174668987
1.342,-3.10467526015842
1.348,-3.07070423290701
1.354,-3.03818466630532
1.36,-3.00708967196563
1.366,-2.97738989910944
1.372,-2.94905393372515
1.378,-2.92204868049457
1.384,-2.89633974091206
1.39,-2.8718918156716
1.396,-2.84866920884931
1.402,-2.82663669742417
1.408,-2.80576194056941
1.414,-2.78602775897585
1.42,-2.76767568838623
1.426,-2.7493249336883
1.432,-2.73278110238071
1.438,-2.7171084982894
1.444,-2.70234836177231
1.45,-2.68847764842371
1.456,-2.67546638182897
1.462,-2.66328361243636
1.468,-2.65189876911417
1.474,-2.64128210574641
1.48,-2.63140488863033
1.486,-2.62223948785253
1.492,-2.61375942482797
1.498,-2.60593939589387
1.504,-2.59875528075778
1.51,-2.59218414026787
1.516,-2.58620420609485
1.522,-2.5807948640168
1.528,-2.57593663202831
1.534,-2.57161113422389
1.54,-2.56780107123402
1.546,-2.56449018787209
1.552,-2.56166323856068
1.558,-2.55930595103278
1.564,-2.55739215769726
1.57,-2.55588610711434
1.576,-2.55481354859788
1.582,-2.55416073034792
1.588,-2.55391518576114
1.594,-2.55406565554591
1.6,-2.5546020152544
1.606,-2.5555152082141
1.612,-2.55679718374339
1.618,-2.55844084047143
1.624,-2.56043997454523
1.63,-2.56278923249024
1.636,-2.56548406849446
1.642,-2.56852070591219
1.648,-2.57189610284405
1.654,-2.57560792177741
1.66,-2.57965450355162
1.666,-2.58403484658455
1.672,-2.58874859411694
1.678,-2.59379603793354
1.684,-2.59917816880035
1.69,-2.60489691530902
1.696,-2.6109566709322
1.702,-2.61741586301805
1.708,-2.62405896378961
1.714,-2.63115250841565
1.72,-2.63858991361091
1.726,-2.64638112623862
1.732,-2.65453216506099
1.738,-2.66304894205207
1.744,-2.67193771918205
1.75,-2.68120521511466
1.756,-2.69085864061112
1.762,-2.70090571414154
1.768,-2.71135467104164
1.774,-2.72221427043569
1.78,-2.7334938013878
1.786,-2.74520308869132
1.792,-2.75735249810753
1.798,-2.76995294020056
1.804,-2.78301587065003
1.81,-2.79655328180115
1.816,-2.81057767118394
1.822,-2.82510194177295
1.828,-2.84013905458617
1.834,-2.8557004104541
1.84,-2.8717803973584
1.846,-2.88864435155335
1.852,-2.90579693430171
1.858,-2.92362845194835
1.864,-2.94207985411098
1.87,-2.96116406149912
1.876,-2.98089904988353
1.882,-3.0013044696517
1.888,-3.02240105898357
1.894,-3.04421050021788
1.9,-3.06675538753965
1.906,-3.09005923159754
1.912,-3.11414647932158
1.918,-3.13904254138223
1.924,-3.16477382432305
1.93,-3.19136776610426
1.936,-3.21885287449868
1.942,-3.24725876809738
1.948,-3.27661621983631
1.954,-3.30695720303342
1.96,-3.33831493997
1.966,-3.37072395307533
1.972,-3.40422011879071
1.978,-3.43884072420039
1.984,-3.47462452652686
1.99,-3.51161181559599
1.996,-3.54984447938576
2.002,-3.58936607278088
2.008,-3.63022188966438
2.014,-3.67245903848728
2.02,-3.71612652146859
2.026,-3.76127531758988
2.032,-3.8079584695631
2.038,-3.85623117496556
2.044,-3.90615088175389
2.05,-3.95777738838886
2.056,-4.01117294882546
2.062,-4.06640238264827
2.068,-4.12353319066107
2.074,-4.18263567627262
2.08,-4.2437830730573
2.086,-4.30705167891201
2.092,-4.37252099727785
2.098,-4.4402738859501
2.104,-4.51039671406103
2.11,-4.58297952789054
2.116,-4.65811622623914
2.122,-4.73590474618854
2.128,-4.81650160795014
2.134,-4.90000819636159
2.14,-4.98648062322834
2.146,-5.07603632664733
2.152,-5.16879808884601
2.158,-5.26489433100121
2.164,-5.36445943030396
2.17,-5.46763406162865
2.176,-5.57456556646953
2.182,-5.68540835215403
2.188,-5.80032432473604
2.194,-5.91948335942034
2.2,-6.04306381287816
2.206,-6.17125308239196
2.212,-6.30424821742397
2.218,-6.44225658994762
2.224,-6.58549663072424
2.23,-6.73419863966192
2.236,-6.88860567946989
2.242,-7.0489745630339
2.248,-7.21557694629667
2.254,-7.38870053994185
2.26,-7.5686504548576
2.266,-7.75575069819326
2.272,-7.95034583880963
2.278,-8.1528028630264
2.284,-8.36351324373004
2.29,-8.58289524801282
2.296,-8.81139651039167
2.302,-9.04949690001442
2.308,-9.29771171064649
2.314,-9.55659520093059
2.32,-9.8267445083235
2.326,-10.1088039515346
2.332,-10.4034697205978
2.338,-10.711494926856
2.344,-11.0336949408831
2.35,-11.3709528750396
2.356,-11.7242249539319
2.362,-12.0945453370799
2.368,-12.4830296768764
2.374,-12.8908762537075
2.38,-13.3193628378547
2.386,-13.7698363407917
2.392,-14.243690610261
2.398,-14.7423250398081
2.404,-15.2670724590102
2.41,-15.8190782332866
2.416,-16.3991024999932
2.422,-17.0072026440531
2.428,-17.6422324947187
2.434,-18.3010697395242
2.44,-18.9774630530509
2.446,-19.660405261494
2.452,-20.3320611752374
2.458,-20.9656433202502
2.464,-21.5243767711557
2.47,-21.9636663814728
2.476,-22.2387052147757
2.482,-22.3171357704281
2.488,-22.1910945273495
2.494,-21.8804816707455
2.5,-21.4249143649258
2.506,-20.8703852901791
2.512,-20.2585078936292
2.518,-19.6215437546255
2.524,-18.9819837209036
2.53,-18.3542769463568
2.536,-17.7470186874638
2.542,-17.1648419757769
2.548,-16.6098243084161
2.554,-16.0824560864529
2.56,-15.5822787738469
2.566,-15.1082941341827
2.572,-14.6592216037412
2.578,-14.2336573395101
2.584,-13.8301705032333
2.59,-13.4473598515085
2.596,-13.083885415242
2.602,-12.7384846822953
2.608,-12.4099792582488
2.614,-12.0972757888747
2.62,-11.7993635335942
2.626,-11.5153100917034
2.632,-11.2442562177486
2.638,-10.9854103020146
2.644,-10.7380428624795
2.65,-10.5014812486794
2.656,-10.2751046657179
2.662,-10.058339568963
2.668,-9.85065544447066
2.674,-9.65156096892283
2.68,-9.46060053073247
2.686,-9.27735108761703
2.692,-9.1014193332208
2.698,-8.93243914487142
2.704,-8.77006928538487
2.71,-8.61399133340211
2.716,-8.46390781868044
2.722,-8.31954054084168
2.728,-8.18062905215364
2.734,-8.04692928691105
2.74,-7.91821232183834
2.746,-7.79426325364171
2.752,-7.67488018138215
2.758,-7.55987328273038
2.764,-7.44906397440507
2.77,-7.34228414819987
2.776,-7.23937547498332
2.782,-7.14018876992183
2.788,-7.04458341294207
2.794,-6.95242681912475
2.8,-6.86359395431904
2.806,-6.77796689179384
2.812,-6.69543440620807
2.818,-6.61589160159356
2.824,-6.53923957040855
2.83,-6.46538508104231
2.836,-6.39424029143796
2.842,-6.32572248675446
2.848,-6.25975383921517
2.854,-6.19626118849224
2.86,-6.13517584115594
2.866,-6.07643338787951
2.872,-6.0199735372348
2.878,-5.96573996504397
2.884,-5.91368017836994
2.89,-5.86374539333416
2.896,-5.81589042604655
2.902,-5.77007359601966
2.908,-5.72625664151885
2.914,-5.68440464637285
2.92,-5.64448597783581
2.926,-5.60647223515321
2.932,-5.5703382085401
2.938,-5.53606184833202
2.944,-5.50362424411691
2.95,-5.4730096137
2.956,-5.44420530179421
2.962,-5.41720178836575
2.968,-5.3919927065978
2.974,-5.36857487046571
2.98,-5.34694831194384
2.986,-5.32711632788685
2.992,-5.30908553664777
2.998,-5.29286594450945
3.004,-5.2784710220162
3.01,-5.26591779029646
3.016,-5.25522691746588
3.022,-5.24642282519093
3.028,-5.23953380547638
3.034,-5.23459214771345
3.04,-5.23163427598786
3.046,-5.23070089659785
3.052,-5.23183715566738
3.058,-5.23509280665961
3.064,-5.24052238749566
3.07,-5.24818540686231
3.076,-5.25814653914588
3.082,-5.27047582725455
3.088,-5.28524889238439
3.094,-5.30254714954045
3.1,-5.322458027339
3.106,-5.34507519028522
3.112,-5.37049876133626
3.118,-5.39883554211651
3.124,-5.43019922764351
3.13,-5.46471061184139
3.136,-5.50249777945677
3.142,-5.54369627924
3.148,-5.5884492724046
3.154,-5.63690764941845
3.16,-5.68923010710162
3.166,-5.74558317679508
3.172,-5.80614119300959
3.178,-5.87108619044846
3.184,-5.94060771560624
3.19,-6.0149025372565
3.196,-6.09417423803349
3.202,-6.17863266695651
3.208,-6.26849323010873
3.214,-6.36397599372433
3.22,-6.46530457061057
3.226,-6.57270475707765
3.232,-6.68640288330122
3.238,-6.80662383522526
3.244,-6.93358870064209
3.25,-7.06751198588018
3.256,-7.20905408298251
3.262,-7.35729460241184
3.268,-7.51208961663139
3.274,-7.67317428033332
3.28,-7.84013853678307
3.286,-8.01240118817094
3.292,-8.18918342398334
3.298,-8.36948351270933
3.304,-8.55205510718575
3.31,-8.7353924469084
3.316,-8.917726557391
3.322,-9.09703716440077
3.328,-9.27108519069148
3.334,-9.4374700509644
3.34,-9.59371417915438
3.346,-9.73737411893737
3.352,-9.86617320221812
3.358,-9.97814591602831
3.364,-10.0717795979196
3.37,-10.1461364847348
3.376,-10.2009396006005
3.382,-10.2366100265204
3.388,-10.2542501605157
3.394,-10.2555760107517
3.4,-10.2428092116888
3.406,-10.2185444590041
3.412,-10.1856095179909
3.418,-10.1469331103704
3.424,-10.1054319130532
3.43,-10.0639229992129
3.436,-10.0250635088426
3.442,-9.99131587563896
3.448,-9.9649347904235
3.454,-9.94797112007928
3.46,-9.94228791451304
3.466,-9.94958407435525
3.472,-9.97142191869921
3.478,-10.0092555637974
3.484,-10.0644575535783
3.49,-10.1383414775579
3.496,-10.2321783042953
3.502,-10.3472037831858
3.508,-10.484613436639
3.514,-10.6455402495946
3.52,-10.8310079783091
3.526,-11.0418498007382
3.532,-11.2785775458598
3.538,-11.5411807968423
3.544,-11.8288280296522
3.55,-12.1394351309116
3.556,-12.4690645607127
3.562,-12.8111314651147
3.568,-13.1554417067611
3.574,-13.4872035293295
3.58,-13.7863709074644
3.586,-14.0279702018602
3.592,-14.1842490429442
3.598,-14.2291559445172
3.604,-14.1444459586763
3.61,-13.9250587769506
3.616,-13.5809074281881
3.622,-13.1339916874614
3.628,-12.61252726383
3.634,-12.0450297913227
3.64,-11.4563512956914
3.646,-10.8660107025094
3.652,-10.2881596135053
3.658,-9.73236063812963
3.664,-9.20459679167905
3.67,-8.70821371965427
3.676,-8.24468748340709
3.682,-7.8142076999864
3.688,-7.41610349349978
3.694,-7.04914788614014
3.7,-6.71177263876606
3.706,-6.40221871015206
3.712,-6.11864090877501
3.718,-5.85918002017075
3.724,-5.62201178348826
3.73,-5.40537931930569
3.736,-5.20761368381617
3.742,-5.02714589206519
3.748,-4.86251282749717
3.754,-4.71235880494681
3.76,-4.57543409025848
3.766,-4.45059134282993
3.772,-4.33678069867
3.778,-4.23304402538488
3.784,-4.13850873972171
3.79,-4.05238147120364
3.796,-3.97394177377318
3.802,-3.902536025281
3.808,-3.83757160769258
3.814,-3.77851142566297
3.82,-3.72486879503273
3.826,-3.67620271377133
3.832,-3.63211351431634
3.838,-3.59223888684672
3.844,-3.55625025677463
3.85,-3.52384949585174
3.856,-3.49476594414164
3.862,-3.46875371923285
3.868,-3.44558928908724
3.874,-3.42506928555831
3.88,-3.40700853666088
3.886,-3.39123829697223
3.892,-3.37760465698074
3.898,-3.3659671136879
3.904,-3.35619728625622
3.91,-3.34817776193929
3.916,-3.34180105890499
3.922,-3.33696869385357
3.928,-3.33359034353022
3.934,-3.33158309033398
3.94,-3.33087074323249
3.946,-3.33138322610736
3.952,-3.33305602648337
3.958,-3.3358296983413
3.964,-3.33964941338535
3.97,-3.34446455573807
3.976,-3.35022835557406
3.982,-3.35689755768525
3.988,-3.36443212140016
3.994,-3.37279494866253
4,-3.38195163741633
4.006,-3.39187025774817
4.012,-3.40252114850876
4.018,-3.41387673237655
4.024,-3.42591134754092
4.03,-3.43860109437366
4.036,-3.45192369562753
4.042,-3.46585836885223
4.048,-3.48038570985346
4.054,-3.4954875861407
4.06,-3.51114703941713
4.066,-3.52734819626063
4.072,-3.5440761862305
4.078,-3.56131706671079
4.084,-3.57905775386948
4.09,-3.59728595917385
4.096,-3.61599013095694
4.102,-3.63515940057898
4.108,-3.65478353277156
4.114,-3.67485287979157
4.12,-3.69535833904732
4.126,-3.71629131389094
4.132,-3.73764367729953
4.138,-3.75940773819343
4.144,-3.78157621016273
4.15,-3.80414218239426
4.156,-3.82709909260974
4.162,-3.85044070184293
4.168,-3.87416107089867
4.174,-3.89825453835084
4.18,-3.92271569994831
4.186,-3.9475393893097
4.192,-3.97272065979767
4.198,-3.99825476747308
4.204,-4.02413715503749
4.21,-4.05036343668037
4.216,-4.07692938375431
4.222,-4.10383091120777
4.228,-4.13106406471098
4.234,-4.15862500841553
4.24,-4.18651001329331
4.246,-4.21471544600488
4.252,-4.24323775825121
4.258,-4.27207347656661
4.264,-4.30121919251421
4.27,-4.33067155324815
4.276,-4.36042725241007
4.282,-4.39048302132961
4.288,-4.42083562050172
4.294,-4.45148183131541
4.3,-4.48241844801104
4.306,-4.51364226984522
4.312,-4.54515009344416
4.318,-4.57693870532831
4.324,-4.60900487459259
4.33,-4.64134534572826
4.336,-4.67395683157399
4.342,-4.70683600638501
4.348,-4.73997949901069
4.354,-4.77338388617226
4.36,-4.80704568583363
4.366,-4.84096135065929
4.372,-4.875127261555
4.378,-4.90953972128742
4.384,-4.94419494818073
4.39,-4.97908906988873
4.396,-5.01421811724248
4.402,-5.04957801817445
4.408,-5.08516459172108
4.414,-5.12097354210705
4.42,-5.15700045291522
4.426,-5.19324078134743
4.432,-5.22968985258249
4.438,-5.26634285423838
4.444,-5.30319483094703
4.45,-5.34024067905078
4.456,-5.37747514143083
4.462,-5.41489280247878
4.468,-5.45248808322346
4.474,-5.49025523662609
4.48,-5.52818834305787
4.486,-5.56628130597487
4.492,-5.60452784780605
4.498,-5.64292150607108
4.504,-5.68145562974551
4.51,-5.72012337589134
4.516,-5.75891770657232
4.522,-5.79783138607332
4.528,-5.83685697844436
4.534,-5.8759868453899
4.54,-5.91521314452503
4.546,-5.95452782802008
4.552,-5.99392264165584
4.558,-6.03338912431183
4.564,-6.07291860790981
4.57,-6.11250221783528
4.576,-6.15213087385911
4.582,-6.19179529158164
4.588,-6.23148598442081
4.594,-6.27119326616578
4.6,-6.31090725411649
4.606,-6.35061787282906
4.612,-6.3903148584857
4.618,-6.42998776390687
4.624,-6.46962596422188
4.63,-6.50921866321282
4.636,-6.54875490034468
4.642,-6.58822355849307
4.648,-6.62761337237833
4.654,-6.66691293771312
4.66,-6.70611072106743
4.666,-6.74519507045304
4.672,-6.78415422662598
4.678,-6.8229763351029
4.684,-6.861649458884
4.69,-6.90016159187182
4.696,-6.9385006729716
4.702,-6.97665460085567
4.708,-7.01461124937029
4.714,-7.05235848355966
4.72,-7.08988417627816
4.726,-7.12717622535776
4.732,-7.16422257129369
4.738,-7.2010112154078
4.744,-7.23753023844476
4.75,-7.27376781955302
4.756,-7.30971225559821
4.762,-7.34535198075383
4.768,-7.38067558630993
4.774,-7.41567184063818
4.78,-7.45032970924819
4.786,-7.48463837486761
4.792,-7.51858725747632
4.798,-7.55216603422282
4.804,-7.58536465914947
4.81,-7.61817338265204
4.816,-7.65058277059809
4.822,-7.68258372302863
4.828,-7.71416749236724
4.834,-7.74532570106167
4.84,-7.77605035858391
4.846,-7.80633387771622
4.852,-7.83616909005249
4.858,-7.8655492606471
4.864,-7.8944681017459
4.87,-7.92291978553776
4.876,-7.95089895586852
4.882,-7.97840073886372
4.888,-8.00542075241077
4.894,-8.03195511445615
4.9,-8.05800045007852
4.906,-8.08355389730391
4.912,-8.10861311163466
4.918,-8.13317626926988
4.924,-8.15724206900066
4.93,-8.18080973276938
4.936,-8.20387900488832
4.942,-8.22645014991848
4.948,-8.24852394921544
4.954,-8.27010169615427
4.96,-8.29118519005119
4.966,-8.31177672880436
4.972,-8.33187910028113
4.978,-8.35149557248323
4.984,-8.37062988252542
4.99,-8.38928622446667
4.996,-8.40746923603568
5.002,-8.42518398429546
5.008,-8.44243595029349
5.014,-8.45923101274526
5.02,-8.47557543080052
5.026,-8.4914758259412
5.032,-8.50693916306051
5.038,-8.52197273077157
5.044,-8.53658412099298
5.05,-8.55078120785695
5.056,-8.56457212598344
5.062,-8.57796524816126
5.068,-8.59096916247398
5.074,-8.60359264890514
5.08,-8.61584465545376
5.086,-8.62773427378712
5.092,-8.63927071445378
5.098,-8.65046328167561
5.104,-8.66132134773367
5.11,-8.67185432695828
5.116,-8.68207164933023
5.122,-8.69198273369608
5.128,-8.7015969605975
5.134,-8.7109236447121
5.14,-8.71997200690094
5.146,-8.72875114585742
5.152,-8.7372700093517
5.158,-8.74553736506655
5.164,-8.75356177102287
5.17,-8.76135154559801
5.176,-8.76891473714583
5.182,-8.77625909323634
5.188,-8.78339202954367
5.194,-8.79032059842452
5.2,-8.79705145724621
5.206,-8.80359083654306
5.212,-8.80994450810325
5.218,-8.81611775311519
5.224,-8.82211533053345
5.23,-8.82794144585878
5.236,-8.83359972056569
5.242,-8.83909316245351
5.248,-8.84442413724303
5.254,-8.84959434179025
5.26,-8.85460477934067
5.266,-8.85945573730161
5.272,-8.86414676806417
5.278,-8.86867667346018
5.284,-8.87304349349119
5.29,-8.87724450001232
5.296,-8.88127619609434
5.302,-8.88513432181655
5.308,-8.88881386726028
5.314,-8.89230909347351
5.32,-8.8956135621582
5.326,-8.89872017478923
5.332,-8.90162122180523
5.338,-8.90430844241218
5.344,-8.9067730954093
5.35,-8.90900604128077
5.356,-8.91099783559593
5.362,-8.91273883352532
5.368,-8.91421930501233
5.374,-8.91542955984499
5.38,-8.9163600815553
5.386,-8.91700166874289
5.392,-8.91734558208669
5.398,-8.91738369498415
5.404,-8.91710864545676
5.41,-8.91651398669807
5.416,-8.91559433343111
5.422,-8.91434550110024
5.428,-8.91276463486235
5.434,-8.91085032537307
5.44,-8.9086027084942
5.446,-8.90602354628105
5.452,-8.90311628694113
5.458,-8.89988610188296
5.464,-8.8963398984822
5.47,-8.89248630776626
5.476,-8.88833564683683
5.482,-8.88389985648839
5.488,-8.87919241511432
5.494,-8.87422823059503
5.5,-8.86902351240978
5.506,-8.86530715352503
5.512,-8.86135771917344
5.518,-8.85717645553484
5.524,-8.8527647008582
5.53,-8.84812388481562
5.536,-8.84325552777341
5.542,-8.83816123998139
5.548,-8.8328427206818
5.554,-8.82730175713915
5.56,-8.82154022359272
5.566,-8.81556008013339
5.572,-8.80936337150657
5.578,-8.80295222584344
5.584,-8.79632885332229
5.59,-8.78949554476251
5.596,-8.78245467015325
5.602,-8.77520867711934
5.608,-8.76776008932703
5.614,-8.76011150483196
5.62,-8.75226559437223
5.626,-8.74422509960919
5.632,-8.73599283131887
5.638,-8.72757166753684
5.644,-8.71896455165948
5.65,-8.71017449050462
5.656,-8.70120455233444
5.662,-8.69205786484391
5.668,-8.68273761311745
5.674,-8.67324703755729
5.68,-8.66358943178616
5.686,-8.65376814052776
5.692,-8.6437865574677
5.698,-8.63364812309832
5.704,-8.62335632255003
5.71,-8.61291468341238
5.716,-8.60232677354783
5.722,-8.5915961989009
5.728,-8.58072660130582
5.734,-8.56972165629533
5.74,-8.55858507091339
5.746,-8.54732058153457
5.752,-8.53593195169272
5.758,-8.52442296992131
5.764,-8.51279744760829
5.77,-8.50105921686738
5.776,-8.48921212842864
5.782,-8.47726004955009
5.788,-8.4652068619529
5.794,-8.45305645978199
5.8,-8.44081274759416
5.806,-8.42847963837552
5.812,-8.41606105159016
5.818,-8.40356091126169
5.824,-8.39098314408919
5.83,-8.37833167759932
5.836,-8.36561043833576
5.842,-8.35282335008747
5.848,-8.33997433215707
5.854,-8.32706729767024
5.86,-8.31410615192752
5.866,-8.30109479079927
5.872,-8.28803709916475
5.878,-8.27493694939608
5.884,-8.26179819988786
5.89,-8.24862469363302
5.896,-8.23542025684547
5.902,-8.22218869763
5.908,-8.20893380469982
5.914,-8.19565934614215
5.92,-8.18236906823188
5.926,-8.16906669429375
5.932,-8.15575592361287
5.938,-8.14244043039389
5.944,-8.12912386276855
5.95,-8.1158098418517
5.956,-8.10250196084546
5.962,-8.08920378419156
5.968,-8.07591884677137
5.974,-8.06265065315338
5.98,-8.04940267688785
5.986,-8.03617835984809
5.992,-8.02298111161803
5.998,-8.00981430892548
6.004,-7.99668129512059
6.01,-7.98358537969896
6.016,-7.97052983786867
6.022,-7.95751791016069
6.028,-7.94455280208192
6.034,-7.93163768381005
6.04,-7.91877568992968
6.046,-7.90596991920867
6.052,-7.89322343441401
