"Freq [GHz]","dB(St(2,1)) []"
1,-16.7082330853004
1.006,-18.0586503629256
1.012,-19.0639852513537
1.018,-19.4871295918385
1.024,-19.3400467061029
1.03,-18.8412480888562
1.036,-18.2242264191805
1.042,-17.6228301800522
1.048,-17.0931029224853
1.054,-16.6493120801431
1.06,-16.2886606893245
1.066,-16.0024676437673
1.072,-15.7819276616084
1.078,-15.6162600217338
1.084,-15.4991758818879
1.09,-15.4239934973044
1.096,-15.3854835919287
1.102,-15.379617457964
1.108,-15.4006082418961
1.114,-15.4496393648487
1.12,-15.5215935517669
1.126,-15.6148400999882
1.132,-15.7276132515094
1.138,-15.8583028344403
1.144,-16.0052921536369
1.15,-16.1672383926247
1.156,-16.3424796400802
1.162,-16.5295483051621
1.168,-16.7267962627776
1.174,-16.9325119956151
1.18,-17.1448891506522
1.186,-17.3620081008921
1.192,-17.5818347336664
1.198,-17.8022346610964
1.204,-18.02100126153
1.21,-18.2358961321408
1.216,-18.4447002041585
1.222,-18.6452730416561
1.228,-18.8356169008182
1.234,-19.0139412018336
1.24,-19.1787224171286
1.246,-19.3287542464834
1.252,-19.463183492002
1.258,-19.5815282913442
1.264,-19.68367720272
1.27,-19.7698699843763
1.276,-19.8406662937987
1.282,-19.81426065783
1.288,-19.936086596742
1.294,-19.9695222143072
1.3,-19.9893164214368
1.306,-19.9989120029767
1.312,-20.0000042351775
1.318,-19.9939444629845
1.324,-19.981937960505
1.33,-19.965081488314
1.336,-19.9443689740568
1.342,-19.9206914258103
1.348,-19.8948375453156
1.354,-19.8674964759937
1.36,-19.8392626308088
1.366,-19.8106421179587
1.372,-19.7820602235521
1.378,-19.753869493624
1.384,-19.7263581141761
1.39,-19.6997585430991
1.396,-19.6742569081319
1.402,-19.6500055009979
1.408,-19.6271492710854
1.414,-19.6059441862895
1.42,-19.5890428107705
1.426,-19.5638913366257
1.432,-19.5477107030651
1.438,-19.5320823953608
1.444,-19.5176919036696
1.45,-19.504608788165
1.456,-19.4928220253513
1.462,-19.4822966353528
1.468,-19.4729872136882
1.474,-19.464842899839
1.48,-19.4578098265836
1.486,-19.4518325915761
1.492,-19.4468552544627
1.498,-19.4428220588075
1.504,-19.4396779721126
1.51,-19.4373690946432
1.516,-19.4358429683795
1.522,-19.4350488074801
1.528,-19.4349376659439
1.534,-19.4354625545603
1.54,-19.4365785167529
1.546,-19.438242671108
1.552,-19.4404142269775
1.558,-19.4430544784364
1.564,-19.4460492708463
1.57,-19.4491900793389
1.576,-19.4526521409624
1.582,-19.45638798431
1.588,-19.460353122098
1.594,-19.4645058625063
1.6,-19.4688071341688
1.606,-19.4732203237953
1.612,-19.4777111254985
1.618,-19.4822474010013
1.624,-19.4867990500034
1.63,-19.4913378901189
1.636,-19.4958375459656
1.642,-19.5002733472645
1.648,-19.5046222362813
1.654,-19.508862685891
1.66,-19.5129746316118
1.666,-19.5169394259671
1.672,-19.5207398371593
1.678,-19.5243601568868
1.684,-19.527786645845
1.69,-19.5310093826159
1.696,-19.534033763585
1.702,-19.5372618802877
1.708,-19.5390573088144
1.714,-19.5413709666925
1.72,-19.5433651988406
1.726,-19.5450719291907
1.732,-19.5464899860882
1.738,-19.5476141784608
1.744,-19.5484387350318
1.75,-19.5489580793287
1.756,-19.5491670586896
1.762,-19.5490610187077
1.768,-19.5486358252839
1.774,-19.5478878678978
1.78,-19.5468140578674
1.786,-19.545411829508
1.792,-19.5436791519183
1.798,-19.5416145636135
1.804,-19.5392172551061
1.81,-19.5364872591826
1.816,-19.5334259113426
1.822,-19.5300371009415
1.828,-19.5263314190875
1.834,-19.5223456702326
1.84,-19.518349499672
1.846,-19.5117357545939
1.852,-19.5074912374859
1.858,-19.5022024835873
1.864,-19.4965051307765
1.87,-19.4904554892447
1.876,-19.4840697891566
1.882,-19.4773558028204
1.888,-19.4703187280754
1.894,-19.462962849193
1.9,-19.4552921288361
1.906,-19.4473104527173
1.912,-19.4390217410332
1.918,-19.4304300023591
1.924,-19.421539360432
1.93,-19.4123540673335
1.936,-19.4028785095714
1.942,-19.3931172104043
1.948,-19.3830748302355
1.954,-19.3727561661293
1.96,-19.3621661510892
1.966,-19.3513098535115
1.972,-19.3401924770944
1.978,-19.3288193614074
1.984,-19.3171959832765
1.99,-19.3053279591149
1.996,-19.2932210483087
2.002,-19.2808811577557
2.008,-19.2683143476479
2.014,-19.2555268385821
2.02,-19.2425250200795
2.026,-19.2293154605895
2.032,-19.2159049190514
2.038,-19.2023003580817
2.044,-19.1885089588529
2.05,-19.1745381377218
2.056,-19.1603955646622
2.062,-19.1460891835505
2.068,-19.131627234343
2.074,-19.1170182771794
2.08,-19.1022712184342
2.086,-19.0873953387312
2.092,-19.0724003229217
2.098,-19.0572962920168
2.104,-19.0420938370514
2.11,-19.026804054841
2.116,-19.0114385855773
2.122,-18.9960096521939
2.128,-18.9812079606372
2.134,-18.9669912535834
2.14,-18.952678283785
2.146,-18.9382855504137
2.152,-18.9238307660712
2.158,-18.90933292341
2.164,-18.8948123638112
2.17,-18.8802908479582
2.176,-18.8657916281031
2.182,-18.8513395217726
2.188,-18.8369609866067
2.194,-18.822684195962
2.2,-18.8085391148438
2.206,-18.7945575756567
2.212,-18.78077335318
2.218,-18.7672222380886
2.224,-18.7539421082393
2.23,-18.7409729968425
2.236,-18.728357156526
2.242,-18.7161391181852
2.248,-18.704365743387
2.254,-18.6930862689756
2.26,-18.6823523423957
2.266,-18.6722180461247
2.272,-18.6627399094764
2.278,-18.6539769059243
2.284,-18.645990433976
2.29,-18.6388442795392
2.296,-18.6326045576363
2.302,-18.6273396312737
2.308,-18.623120005244
2.314,-18.6200181926528
2.32,-18.6181085520135
2.326,-18.6174670928595
2.332,-18.6181712479823
2.338,-18.6202996106278
2.344,-18.6239316352761
2.35,-18.6291473009965
2.356,-18.6360267368118
2.362,-18.6446498090312
2.368,-18.6550956711082
2.374,-18.6674422772579
2.38,-18.6817658618074
2.386,-18.6981403870554
2.392,-18.7166369632585
2.398,-18.7373232452307
2.404,-18.7602628109147
2.41,-18.7855145281361
2.416,-18.8131319165525
2.422,-18.8431625125383
2.428,-18.8756472453568
2.434,-18.9106198334539
2.44,-18.9481062100126
2.446,-18.9881239870281
2.452,-19.0306819670634
2.458,-19.0757797115231
2.464,-19.1234071737206
2.47,-19.173544404223
2.476,-19.226161334935
2.482,-19.2812176471636
2.488,-19.3386627274984
2.494,-19.3984357137986
2.5,-19.4604656319255
2.506,-19.5246716221518
2.512,-19.5909632524639
2.518,-19.6592409142902
2.524,-19.7293962945983
2.53,-19.8013129168377
2.536,-19.8748667419048
2.542,-19.9499268192077
2.548,-20.0263559770267
2.554,-20.104011540726
2.56,-20.1827460669714
2.566,-20.262408081962
2.572,-20.3428428117675
2.578,-20.4238928931828
2.584,-20.5053990540401
2.59,-20.5872007526428
2.596,-20.6691367668842
2.602,-20.7510457246674
2.608,-20.8327665684283
2.614,-20.914138947867
2.62,-20.9950035363981
2.626,-21.0752022683152
2.632,-21.154578495231
2.638,-21.2329770619798
2.644,-21.3102443038498
2.65,-21.3862279687455
2.656,-21.4607770696451
2.662,-21.5337416745145
2.668,-21.6049726426529
2.674,-21.6743213182464
2.68,-21.7416391936892
2.686,-21.8067775569431
2.692,-21.8695871388215
2.698,-21.9299177775336
2.704,-21.9876181190612
2.71,-22.0425353728682
2.716,-22.0945151429905
2.722,-22.1434013546186
2.728,-22.189036295763
2.734,-22.2312607923874
2.74,-22.2699145334127
2.746,-22.3048365591536
2.752,-22.3358659230078
2.758,-22.3628425315514
2.764,-22.3856081626564
2.77,-22.404007654922
2.776,-22.417890254778
2.782,-22.427111100312
2.788,-22.4315328135011
2.794,-22.4310271654722
2.8,-22.4254767730756
2.806,-22.4147767798812
2.812,-22.3988364711018
2.818,-22.3775807702955
2.824,-22.350951566266
2.83,-22.318908821538
2.836,-22.2814314191325
2.842,-22.238517711952
2.848,-22.1901857485932
2.854,-22.136473160357
2.86,-22.0774367060488
2.866,-22.0131514831989
2.872,-21.9437098259097
2.878,-21.8692199200279
2.884,-21.7898041751872
2.89,-21.7055974000734
2.896,-21.6167448317503
2.902,-21.5234000719769
2.908,-21.4257229831979
2.914,-21.3238775945257
2.92,-21.2180300638638
2.926,-21.1083467367541
2.932,-20.9949923359903
2.938,-20.8781283089709
2.944,-20.7579113525588
2.95,-20.6344921282382
2.956,-20.5080141738836
2.962,-20.3786130127025
2.968,-20.2464154550114
2.974,-20.1115390845337
2.98,-19.9740919178653
2.986,-19.8341722236181
2.992,-19.6918684864417
2.998,-19.5472595005486
3.004,-19.4004145774252
3.01,-19.2513938529845
3.016,-19.1002486804017
3.022,-18.9470220961742
3.028,-18.7917493484688
3.034,-18.6344584784938
3.04,-18.4751709473947
3.046,-18.3139023029778
3.052,-18.150662882376
3.058,-17.9854585485616
3.064,-17.8182914603774
3.07,-17.6491608774756
3.076,-17.4780640032416
3.082,-17.3049968704275
3.088,-17.1299552758435
3.094,-16.9529357720495
3.1,-16.7739367255762
3.106,-16.5929594527693
3.112,-16.4100094458975
3.118,-16.2250977036826
3.124,-16.0382421818653
3.13,-15.8494693807775
3.136,-15.6588160880842
3.142,-15.4663312957891
3.148,-15.2720783111454
3.154,-15.0761370810961
3.16,-14.8786067490558
3.166,-14.6796084609476
3.172,-14.4792884340334
3.178,-14.2778212967736
3.184,-14.0754137001381
3.19,-13.8723081898151
3.196,-13.6687873138687
3.202,-13.465177920757
3.208,-13.2618555774395
3.214,-13.0592490058241
3.22,-12.8578443975558
3.226,-12.6581894220722
3.232,-12.460896691637
3.238,-12.2666463914721
3.244,-12.0761877263989
3.25,-11.8903387827238
3.256,-11.6969380040077
3.262,-11.505964793719
3.268,-11.3178275430885
3.274,-11.1329552321592
3.28,-10.9517952668417
3.286,-10.7748106110167
3.292,-10.6024761649092
3.298,-10.4352743627866
3.304,-10.2736899918612
3.31,-10.1182042698491
3.316,-9.96928825994413
3.322,-9.82739574717957
3.328,-9.69295574655788
3.334,-9.56636485743697
3.34,-9.44797971641774
3.346,-9.33810982815972
3.352,-9.23701106625468
3.358,-9.14488013150004
3.364,-9.06185023104147
3.37,-8.98798819913637
3.376,-8.92329322097829
3.382,-8.86769724927399
3.388,-8.82106712473555
3.394,-8.78320833283753
3.4,-8.7538702566275
3.406,-8.73275272483212
3.412,-8.71951361028161
3.418,-8.71377720821107
3.424,-8.71514311769172
3.43,-8.72319536083037
3.436,-8.73751150050037
3.442,-8.7576715543171
3.448,-8.78326654602688
3.454,-8.81390658121783
3.46,-8.84922837854323
3.466,-8.88890222744727
3.472,-8.93263837648381
3.478,-8.98019288128495
3.484,-9.031372957297
3.49,-9.08604188930045
3.496,-9.14412354755323
3.502,-9.20560654943973
3.508,-9.27054808617095
3.514,-9.33907740683897
3.52,-9.41139891754965
3.526,-9.48779481221656
3.532,-9.56862710503916
3.538,-9.6543388844705
3.544,-9.74545455725899
3.55,-9.8425788027746
3.556,-9.94639391759429
3.562,-10.057655205069
3.568,-10.1771840625808
3.574,-10.3058584495551
3.58,-10.4446004909799
3.586,-10.5943610913385
3.592,-10.7561016056715
3.598,-10.9307728346977
3.604,-11.11929186773
3.61,-11.3225175688504
3.616,-11.5412257574959
3.622,-11.7760853369593
3.628,-12.0276367351797
3.634,-12.296274010054
3.64,-12.5822318192076
3.646,-12.8855781651153
3.652,-13.2062134268125
3.658,-13.5438757252863
3.664,-13.8981521992257
3.67,-14.268495350608
3.676,-14.6542433049932
3.682,-15.0546426501098
3.688,-15.4688724764335
3.694,-15.8960683317287
3.7,-16.3353449888068
3.706,-16.7858171746598
3.712,-17.246617681704
3.718,-17.7169125455544
3.724,-18.1959132048994
3.73,-18.682885743904
3.736,-19.1771574513453
3.742,-19.6781210154647
3.748,-20.185236715873
3.754,-20.6980329825054
3.76,-21.2161056757926
3.766,-21.7391164103065
3.772,-22.2667902032056
3.778,-22.798912684211
3.784,-23.3353270594141
3.79,-23.8759309793394
3.796,-24.4206734236535
3.802,-24.9695516811507
3.808,-25.5226084739464
3.814,-26.0799292485438
3.82,-26.6416396326278
3.826,-27.2079030338885
3.832,-27.7789183344306
3.838,-28.3549176097042
3.844,-28.9361637723509
3.85,-29.5229480064381
3.856,-30.1155868131235
3.862,-30.7144184309001
3.868,-31.3197983170566
3.874,-31.932093275192
3.88,-32.5516736778468
3.886,-33.178903052449
3.892,-33.8141240588436
3.898,-34.4576395708068
3.904,-35.1096871631364
3.91,-35.7704047816288
3.916,-36.4397847237178
3.922,-37.1176122910472
3.928,-37.8033846460634
3.934,-38.4962046605481
3.94,-39.1946442068886
3.946,-39.8965720357333
3.952,-40.5989442018862
3.958,-41.2975616814874
3.964,-41.9868127504555
3.97,-42.6594393353491
3.976,-43.3063976318971
3.982,-43.916918950245
3.988,-44.478901039954
3.994,-44.9797429903085
4,-45.4076431158495
4.006,-45.7531997951653
4.012,-46.0109482187121
4.018,-46.1803608413922
4.024,-46.2659542008592
4.03,-46.2764618698771
4.036,-46.2233746465693
4.042,-46.1193160669559
4.048,-45.9766571234651
4.054,-45.8065767497218
4.06,-45.6185812815886
4.066,-45.4203827198543
4.072,-45.2180044741731
4.078,-45.0160015163026
4.084,-44.8177168991553
4.09,-44.6255293934449
4.096,-44.4410707544553
4.102,-44.2654057716725
4.108,-44.0991760784682
4.114,-43.942712187962
4.12,-43.796119264307
4.126,-43.6593419592429
4.132,-43.5322129521714
4.138,-43.4144890034707
4.144,-43.3058775427526
4.15,-43.2060561359646
4.156,-43.1146866232168
4.162,-43.031425284112
4.168,-42.9559300514528
4.174,-42.8878655383056
4.18,-42.8269064501421
4.186,-42.772739808617
4.192,-42.7250663048672
4.198,-42.683601019003
4.204,-42.6480736818255
4.21,-42.6182286095308
4.216,-42.5938244083454
4.222,-42.5746335207823
4.228,-42.5604416663062
4.234,-42.5510472150753
4.24,-42.5462605228458
4.246,-42.5459032472109
4.252,-42.5498076594248
4.258,-42.5578159616292
4.264,-42.569779615993
4.27,-42.5855586898068
4.276,-42.6050212187402
4.282,-42.6280425891056
4.288,-42.6545049389727
4.294,-42.6842965772352
4.3,-42.7173114191979
4.306,-42.7534484368635
4.312,-42.7926111218205
4.318,-42.8347069584462
4.324,-42.8796469050029
4.33,-42.9273448801292
4.336,-42.9777172521791
4.342,-43.0306823288476
4.348,-43.0861598445325
4.354,-43.1440704429153
4.36,-43.2043351523007
4.366,-43.2668748513428
4.372,-43.3316097228962
4.378,-43.3984586938846
4.384,-43.467338859272
4.39,-43.5381648884687
4.396,-43.6108484128148
4.402,-43.6852973931677
4.408,-43.761415467097
4.414,-43.8391012757697
4.42,-43.9182477713121
4.426,-43.998741506277
4.432,-44.0804619078504
4.438,-44.163280540611
4.444,-44.2470603630312
4.45,-44.3316549844986
4.456,-44.4169079314402
4.462,-44.5026519331642
4.468,-44.588708240285
4.474,-44.6748859910456
4.48,-44.7609816434626
4.486,-44.8467784939428
4.492,-44.9320463057611
4.498,-45.0165410734496
4.504,-45.1000049515681
4.51,-45.1821663783357
4.516,-45.2627404259797
4.522,-45.3414294101448
4.528,-45.417923790041
4.534,-45.4919033888869
4.54,-45.5630389603551
4.546,-45.6309941208885
4.552,-45.695427659748
4.558,-45.7559962283811
4.564,-45.8123573982184
4.57,-45.8641730615442
4.576,-45.9111131340747
4.582,-45.9528595009723
4.588,-45.9891101311014
4.594,-46.0195832684466
4.6,-46.0440215959521
4.606,-46.0621962568249
4.612,-46.0739106127097
4.618,-46.0790036180346
4.624,-46.0773526958388
4.63,-46.0688760127142
4.636,-46.053534068776
4.642,-46.0313305419932
4.648,-46.002312353443
4.654,-45.9665689494291
4.66,-45.9242308260463
4.666,-45.8754673497783
4.672,-45.820483952326
4.678,-45.759518797671
4.684,-45.6928390333925
4.69,-45.6207367460075
4.696,-45.5435247416345
4.702,-45.4615322690798
4.708,-45.3751007933799
4.714,-45.2845799149882
4.72,-45.1903235143907
4.726,-45.0926861851732
4.732,-44.9920200015434
4.738,-44.8886716499595
4.744,-44.7829799395627
4.75,-44.6752736930284
4.756,-44.5658700085445
4.762,-44.4550728749728
4.768,-44.3431721158086
4.774,-44.2304426331567
4.78,-44.1171439203485
4.786,-44.0035198107637
4.792,-43.8897984305926
4.798,-43.7761923244106
4.804,-43.6628987242642
4.81,-43.5500999352718
4.816,-43.4379638133222
4.822,-43.326644313159
4.828,-43.2162820878453
4.834,-43.1070051232227
4.84,-42.9989293934453
4.846,-42.8921595259432
4.852,-42.7867894662322
4.858,-42.6829031348151
4.864,-42.5805750700354
4.87,-42.4798710521339
4.876,-42.3808487049569
4.882,-42.2835580727684
4.888,-42.1880421704643
4.894,-42.0943375061796
4.9,-42.0024745758409
4.906,-41.9124783296745
4.912,-41.8243686110299
4.918,-41.7381605681577
4.924,-41.6538650397839
4.93,-41.5714889154725
4.936,-41.4910354718713
4.942,-41.4125046859997
4.948,-41.3358935267694
4.954,-41.2611962259426
4.96,-41.1884045297181
4.966,-41.1175079321155
4.972,-41.0484938912927
4.978,-40.9813480298882
4.984,-40.9160543204336
4.99,-40.8525952568315
4.996,-40.7909520128391
5.002,-40.7311045884471
5.008,-40.6730319449891
5.014,-40.6167121297665
5.02,-40.5621223909219
5.026,-40.5092392832482
5.032,-40.4580387655725
5.038,-40.4084962903129
5.044,-40.3605868857624
5.05,-40.3142852316187
5.056,-40.2695657282401
5.062,-40.2264025600759
5.068,-40.1847697536862
5.074,-40.1446412307394
5.08,-40.1059908563463
5.086,-40.0687924830661
5.092,-40.0330199908952
5.098,-39.9986473235284
5.104,-39.9656485211629
5.11,-39.9339977500958
5.116,-39.9036693293491
5.122,-39.8746377545399
5.128,-39.8468777192004
5.134,-39.8203641337363
5.14,-39.7950721422
5.146,-39.7709771370457
5.152,-39.7480547720189
5.158,-39.7262809733253
5.164,-39.7056319492127
5.17,-39.6860841980933
5.176,-39.6676145153223
5.182,-39.6501999987429
5.188,-39.6338180531015
5.194,-39.6184463934273
5.2,-39.6040630474678
5.206,-39.590646357262
5.212,-39.5781749799313
5.218,-39.5666278877599
5.224,-39.5559843676336
5.23,-39.5462240199008
5.236,-39.5373267567142
5.242,-39.5292727999097
5.248,-39.5220426784727
5.254,-39.5156172256411
5.26,-39.5099775756895
5.266,-39.5051051604343
5.272,-39.5009817055009
5.278,-39.4975892263865
5.284,-39.4949100243528
5.29,-39.4929266821785
5.296,-39.4916220598
5.302,-39.4909792898665
5.308,-39.4909817732332
5.314,-39.4916131744144
5.32,-39.4928574170168
5.326,-39.4946986791715
5.332,-39.4971213889813
5.338,-39.500110219998
5.344,-39.5036500867442
5.35,-39.5077261402913
5.356,-39.5123237639053
5.362,-39.5174285687695
5.368,-39.5230263897941
5.374,-39.5291032815186
5.38,-39.535645514115
5.386,-39.5426395694975
5.392,-39.5500721375421
5.398,-39.557930112422
5.404,-39.5662005890612
5.41,-39.5748708597077
5.416,-39.5839284106305
5.422,-39.5933609189397
5.428,-39.603156249531
5.434,-39.6133024521546
5.44,-39.623787758609
5.446,-39.6346005800566
5.452,-39.6457295044626
5.458,-39.6571632941534
5.464,-39.6688908834935
5.47,-39.6809013766781
5.476,-39.6931840456394
5.482,-39.7057283280622
5.488,-39.7185238255076
5.494,-39.7315603016395
5.5,-39.7448276805519
5.506,-39.7405415930682
5.512,-39.7366896342711
5.518,-39.7332926312649
5.524,-39.7303722158634
5.53,-39.7279508517896
5.536,-39.7260518624927
5.542,-39.72469945957
5.548,-39.7239187717763
5.554,-39.723735874601
5.56,-39.7241778203912
5.566,-39.7252726689934
5.572,-39.7270495188845
5.578,-39.7295385387578
5.584,-39.7327709995281
5.59,-39.7367793067134
5.596,-39.7415970331488
5.602,-39.7472589519847
5.608,-39.7538010699149
5.614,-39.7612606605808
5.62,-39.7696762980909
5.626,-39.7790878905937
5.632,-39.7895367138395
5.638,-39.801065444663
5.644,-39.8137181943192
5.65,-39.827540541603
5.656,-39.8425795656837
5.662,-39.8588838785868
5.668,-39.8765036572577
5.674,-39.8954906751485
5.68,-39.9158983332701
5.686,-39.9377816906656
5.692,-39.961197494266
5.698,-39.9862042081047
5.704,-40.0128620418812
5.71,-40.0412329788847
5.716,-40.0713808033058
5.722,-40.1033711269964
5.728,-40.1372714157612
5.734,-40.1731510153022
5.74,-40.2110811769758
5.746,-40.2511350835645
5.752,-40.2933878753169
5.758,-40.3379166765637
5.764,-40.3848006232807
5.77,-40.4341208920377
5.776,-40.4859607308473
5.782,-40.5404054925139
5.788,-40.5975426711718
5.794,-40.6574619428031
5.8,-40.7202552106353
5.806,-40.7860166564366
5.812,-40.8548427988581
5.818,-40.9268325601095
5.824,-41.0020873424096
5.83,-41.0807111158184
5.836,-41.1628105192343
5.842,-41.2484949765394
5.848,-41.3378768300861
5.854,-41.4310714939526
5.86,-41.5281976296534
5.866,-41.6293773472684
5.872,-41.7347364352744
5.878,-41.8444046227087
5.884,-41.9585158776863
5.89,-42.0772087467389
5.896,-42.2006267399409
5.902,-42.3289187673685
5.908,-42.4622396330914
5.914,-42.6007505936645
5.92,-42.7446199889717
5.926,-42.8940239543093
5.932,-43.049147223815
5.938,-43.2101840367805
5.944,-43.3773391600885
5.95,-43.550829042032
5.956,-43.7308831151928
5.962,-43.9177452689464
5.968,-44.1116755156454
5.974,-44.3129518787427
5.98,-44.5218725362203
5.986,-44.738758258909
5.992,-44.9639551908933
5.998,-45.1978380285461
6.004,-45.4408136662857
6.01,-45.6933253914788
6.016,-45.9558577288016
6.022,-46.2289420568199
6.028,-46.5131631478998
6.034,-46.8091668185979
6.04,-47.1176689238028
6.046,-47.4394659873693
6.052,-47.7754478392587
6.058,-48.126612730451
