"Freq [GHz]","dB(St(3,1)) []"
1,-11.0972962179075
1.006,-13.6771094723359
1.012,-15.8255338860587
1.018,-16.90793429294
1.024,-16.8411763393239
1.03,-16.2210718264066
1.036,-15.5090475489359
1.042,-14.8854290103213
1.048,-14.3828155388187
1.054,-13.9915581468733
1.06,-13.6918423561981
1.066,-13.4650629574808
1.072,-13.2948300347851
1.078,-13.1723208099574
1.084,-13.0869017720716
1.09,-13.0327008065271
1.096,-13.0051321279376
1.102,-13.0009268351176
1.108,-13.0167916451482
1.114,-13.0524866174064
1.12,-13.1057500672477
1.126,-13.1758698391252
1.132,-13.2622701723047
1.138,-13.3645658327371
1.144,-13.482414833083
1.15,-13.6155811631665
1.156,-13.7637367298354
1.162,-13.92653777831
1.168,-14.1035082231017
1.174,-14.2940141244151
1.18,-14.4972080163356
1.186,-14.7119785561962
1.192,-14.9369039697163
1.198,-15.1702088864526
1.204,-15.4097264068621
1.21,-15.6528694368597
1.216,-15.8966174595353
1.222,-16.1375268251125
1.228,-16.3717738833805
1.234,-16.5952401257098
1.24,-16.8036460437739
1.246,-16.9927348791717
1.252,-17.1584987011431
1.258,-17.2974283805311
1.264,-17.4067585393675
1.27,-17.4846715327422
1.276,-17.5304163890504
1.282,-17.559731899105
1.288,-17.5282303943849
1.294,-17.4831649058472
1.3,-17.4132719053958
1.306,-17.3215907919103
1.312,-17.2116725870773
1.318,-17.087100067757
1.324,-16.9512917471077
1.33,-16.8073861963074
1.336,-16.6581773954577
1.342,-16.5060881065135
1.348,-16.3531707962697
1.354,-16.201127047013
1.36,-16.0513380534847
1.366,-15.9049005883232
1.372,-15.7626644764144
1.378,-15.6252690098176
1.384,-15.4931768297133
1.39,-15.3667046638499
1.396,-15.2460511384315
1.402,-15.1313233890812
1.408,-15.0225701654577
1.414,-14.9198746575446
1.42,-14.824915543666
1.426,-14.7290259221353
1.432,-14.6437402416369
1.438,-14.5631694373673
1.444,-14.4876023900197
1.45,-14.416905981124
1.456,-14.3508916285742
1.462,-14.2893557410375
1.468,-14.2320904105633
1.474,-14.1788879097802
1.48,-14.1295431775236
1.486,-14.0838554020365
1.492,-14.04162909344
1.498,-14.0026748208851
1.504,-13.9668097099238
1.51,-13.9338577603537
1.516,-13.9036500264845
1.522,-13.8760246908812
1.528,-13.8508270554425
1.534,-13.8279094685361
1.54,-13.8071312030772
1.546,-13.7883582974597
1.552,-13.7714633689108
1.558,-13.7563254069607
1.564,-13.7427489161844
1.57,-13.7304543768004
1.576,-13.7195596187048
1.582,-13.7099475328834
1.588,-13.7015073611519
1.594,-13.6941343366838
1.6,-13.6877293407299
1.606,-13.6821985761341
1.612,-13.6774532579328
1.618,-13.6734093210971
1.624,-13.6699871453162
1.63,-13.6671112966575
1.636,-13.6647102859871
1.642,-13.662716344271
1.648,-13.6610652154564
1.654,-13.6596959689433
1.66,-13.6585508366603
1.666,-13.6575750871896
1.672,-13.6567169697097
1.678,-13.655927824543
1.684,-13.6551627018477
1.69,-13.654383081941
1.696,-13.6535740359687
1.702,-13.6533164313446
1.708,-13.6511360649479
1.714,-13.6499338306299
1.72,-13.6484353857719
1.726,-13.646668197711
1.732,-13.6446108636022
1.738,-13.6422364479592
1.744,-13.6395175925671
1.75,-13.6364276528418
1.756,-13.6329410211701
1.762,-13.6290332215114
1.768,-13.6246809279317
1.774,-13.619861957569
1.78,-13.6145552592129
1.786,-13.6087409104966
1.792,-13.6024001375836
1.798,-13.5955153804465
1.804,-13.5880704519814
1.81,-13.5800509063306
1.816,-13.5714449305947
1.822,-13.5622457674566
1.828,-13.5524597493899
1.834,-13.5421441447763
1.84,-13.5318099806638
1.846,-13.5164217356882
1.852,-13.5055325004066
1.858,-13.4926052212264
1.864,-13.4788330257552
1.87,-13.4643106650381
1.876,-13.4490563738272
1.882,-13.433072364801
1.888,-13.4163561184636
1.894,-13.3989035837569
1.9,-13.3807103291432
1.906,-13.3617720278977
1.912,-13.342084688396
1.918,-13.321644774688
1.924,-13.3004492757786
1.93,-13.2784957495428
1.936,-13.2557823537342
1.942,-13.2323078704791
1.948,-13.2080717277273
1.954,-13.1830740196429
1.96,-13.1573155271256
1.966,-13.1307977392099
1.972,-13.1035228758433
1.978,-13.0754939123901
1.984,-13.0467146061289
1.99,-13.0171895249543
1.996,-12.98692407847
2.002,-12.9559245516454
2.008,-12.9241981412055
2.014,-12.8917529949277
2.02,-12.8585982540332
2.026,-12.8247440988744
2.032,-12.7902017981437
2.038,-12.7549837618592
2.044,-12.7191035984116
2.05,-12.6825761760023
2.056,-12.6454176888441
2.062,-12.6076457285518
2.068,-12.569279361206
2.074,-12.5303392106385
2.08,-12.490847548552
2.086,-12.4508283921563
2.092,-12.4103076100606
2.098,-12.3693130372139
2.104,-12.3278745997087
2.11,-12.2860244502545
2.116,-12.2437971150587
2.122,-12.2012296527074
2.128,-12.1576655506266
2.134,-12.1131958489682
2.14,-12.068574891622
2.146,-12.0238463642881
2.152,-11.9790563847008
2.158,-11.9342535124783
2.164,-11.8894887472623
2.17,-11.8448155139243
2.176,-11.8002896336018
2.182,-11.7559692793194
2.188,-11.7119149149748
2.194,-11.6681892164959
2.2,-11.6248569740443
2.206,-11.581984974218
2.212,-11.539641861323
2.218,-11.4978979769254
2.224,-11.4568251770689
2.23,-11.4164966267509
2.236,-11.3769865714886
2.242,-11.3383700860787
2.248,-11.30072280096
2.254,-11.2641206069151
2.26,-11.2286393392075
2.266,-11.1943544426253
2.272,-11.1613406192899
2.278,-11.1296714614894
2.284,-11.0994190721811
2.29,-11.0706536761976
2.296,-11.0434432255417
2.302,-11.017853002484
2.308,-10.9939452244575
2.314,-10.9717786549645
2.32,-10.9514082248762
2.326,-10.9328846685825
2.332,-10.9162541794587
2.338,-10.9015580890251
2.344,-10.888832574003
2.35,-10.8781083952005
2.356,-10.8694106718092
2.362,-10.862758694251
2.368,-10.8581657782021
2.374,-10.8556391618449
2.38,-10.8551799477682
2.386,-10.8567830902752
2.392,-10.8604374281767
2.398,-10.8661257624628
2.404,-10.8738249775814
2.41,-10.8835062044163
2.416,-10.8951350224713
2.422,-10.9086716982441
2.428,-10.9240714563216
2.434,-10.9412847793583
2.44,-10.9602577328206
2.446,-10.9809323101859
2.452,-11.0032467941856
2.458,-11.0271361296719
2.464,-11.0525323037521
2.47,-11.079364728987
2.476,-11.1075606256559
2.482,-11.137045399365
2.488,-11.1677430105875
2.494,-11.1995763330754
2.5,-11.2324674984555
2.506,-11.2663382247115
2.512,-11.3011101266427
2.518,-11.3367050067771
2.524,-11.3730451255915
2.53,-11.4100534502438
2.536,-11.4476538813547
2.542,-11.485771457679
2.548,-11.5243325387794
2.554,-11.563264966055
2.56,-11.6024982026861
2.566,-11.6419634532314
2.572,-11.6815937637587
2.578,-11.7213241035042
2.584,-11.7610914291416
2.59,-11.800834732804
2.596,-11.8404950750389
2.602,-11.8800156038956
2.608,-11.9193415613415
2.614,-11.9584202781896
2.62,-11.9972011586929
2.626,-12.0356356559189
2.632,-12.0736772389737
2.638,-12.1112813530886
2.644,-12.1484053735283
2.65,-12.1850085542135
2.656,-12.2210519718912
2.662,-12.2564984666234
2.668,-12.2913125792971
2.674,-12.3254604868029
2.68,-12.3589099354654
2.686,-12.3916301732512
2.692,-12.4235918812286
2.698,-12.4547671046978
2.704,-12.4851291843635
2.71,-12.5146526878771
2.716,-12.5433133420326
2.722,-12.5710879658631
2.728,-12.597954404848
2.734,-12.6238914664115
2.74,-12.6488788568616
2.746,-12.6728971198957
2.752,-12.6959275767722
2.758,-12.717952268232
2.764,-12.7389538982319
2.77,-12.7589157795381
2.776,-12.7778217812163
2.782,-12.79565627804
2.788,-12.8124041018341
2.794,-12.8280504947593
2.8,-12.8425810645409
2.806,-12.8559817416372
2.812,-12.8682387383449
2.818,-12.8793385098335
2.824,-12.8892677171039
2.83,-12.8980131918642
2.836,-12.9055619033229
2.842,-12.9119009268984
2.848,-12.917017414853
2.854,-12.9208985688611
2.86,-12.9235316145331
2.866,-12.9249037779204
2.872,-12.9250022640394
2.878,-12.9238142374608
2.884,-12.9213268050246
2.89,-12.9175270007514
2.896,-12.9124017730391
2.902,-12.9059379742459
2.908,-12.8981223527818
2.914,-12.8889415478493
2.92,-12.8783820869933
2.926,-12.8664303866479
2.932,-12.8530727558896
2.938,-12.8382954036371
2.944,-12.8220844495677
2.95,-12.8044259390552
2.956,-12.7853058624701
2.962,-12.7647101792245
2.968,-12.7426248469888
2.974,-12.719035856553
2.98,-12.6939292728641
2.986,-12.6672912828217
2.992,-12.6391082504837
2.998,-12.6093667803978
3.004,-12.5780537898507
3.01,-12.545156590909
3.016,-12.51066298321
3.022,-12.4745613585581
3.028,-12.4368408184813
3.034,-12.3974913060118
3.04,-12.3565037530703
3.046,-12.313870244955
3.052,-12.2695842035656
3.058,-12.2236405911279
3.064,-12.1760361363196
3.07,-12.1267695848437
3.076,-12.0758419766328
3.082,-12.0232569520095
3.088,-11.9690210892545
3.094,-11.9131442761573
3.1,-11.8556401182166
3.106,-11.796526386234
3.112,-11.7358255060679
3.118,-11.6735650932981
3.124,-11.609778535455
3.13,-11.5445056242925
3.136,-11.4777932402836
3.142,-11.4096960910925
3.148,-11.3402775051661
3.154,-11.2696102807749
3.16,-11.1977775897651
3.166,-11.1248739339192
3.172,-11.0510061501059
3.178,-10.9762944582806
3.184,-10.9008735438263
3.19,-10.824893662639
3.196,-10.7485217537319
3.202,-10.6719425399183
3.208,-10.5953595923351
3.214,-10.5189963292071
3.22,-10.4430969134004
3.226,-10.3679270071006
3.232,-10.2937743355815
3.238,-10.2209490057997
3.244,-10.14978351986
3.25,-10.0806324187626
3.256,-10.0124883361304
3.262,-9.94694635180391
3.268,-9.88439565052014
3.274,-9.82524688359857
3.28,-9.76993023332671
3.286,-9.7188927896641
3.292,-9.67259518494462
3.298,-9.63150745137521
3.304,-9.59610409209319
3.31,-9.56685838933969
3.316,-9.54423601226295
3.322,-9.52868803052065
3.328,-9.52064348588311
3.334,-9.52050171929544
3.34,-9.52862469151893
3.346,-9.54532956737328
3.352,-9.57088185267122
3.358,-9.60548937574368
3.364,-9.64929738975895
3.37,-9.70238503726635
3.376,-9.76476336592054
3.382,-9.83637501751338
3.388,-9.91709563630319
3.394,-10.006736963368
3.4,-10.1050515078999
3.406,-10.2117386201494
3.412,-10.3264517390944
3.418,-10.448806554113
3.424,-10.5783898052313
3.43,-10.7147684502169
3.436,-10.8574989465177
3.442,-11.0061364282387
3.448,-11.1602435987991
3.454,-11.3193992042684
3.46,-11.4832059966405
3.466,-11.6512981370655
3.472,-11.8233480236956
3.478,-11.9990725554882
3.484,-12.1782388609468
3.49,-12.3606695288367
3.496,-12.5462473763273
3.502,-12.7349197789965
3.508,-12.9267025671214
3.514,-13.1216834642889
3.52,-13.320025008396
3.526,-13.521966852739
3.532,-13.7278272977463
3.538,-13.9380038544279
3.544,-14.1529725921965
3.55,-14.3732859811001
3.556,-14.5995689078062
3.562,-14.8325125334413
3.568,-15.0728656781646
3.574,-15.3214234709031
3.58,-15.5790131006298
3.586,-15.8464766525213
3.592,-16.124651207628
3.598,-16.4143466201826
3.604,-16.7163216451746
3.61,-17.0312593438941
3.616,-17.3597429130441
3.622,-17.7022332269628
3.628,-18.0590494191704
3.634,-18.4303537364243
3.64,-18.8161416708259
3.646,-19.2162380296385
3.652,-19.6302991752752
3.658,-20.0578212113007
3.664,-20.4981534617461
3.67,-20.9505162427596
3.676,-21.4140216950482
3.682,-21.8876963497008
3.688,-22.3705041344758
3.694,-22.861368670494
3.7,-23.3591939274136
3.706,-23.8628825618552
3.712,-24.3713515252185
3.718,-24.8835447664807
3.724,-25.3984430556715
3.73,-25.915071106155
3.736,-26.4325022778039
3.742,-26.9498612031145
3.748,-27.4663247018451
3.754,-27.9811213455511
3.76,-28.4935300099071
3.766,-29.0028777173267
3.772,-29.5085370310327
3.778,-30.009923218759
3.784,-30.5064913626653
3.79,-30.9977335536204
3.796,-31.4831762736934
3.802,-31.9623780407743
3.808,-32.4349273636168
3.814,-32.90044103391
3.82,-33.3585627637842
3.826,-33.8089621619879
3.832,-34.25133402941
3.838,-34.6853979443295
3.844,-35.1108980995039
3.85,-35.52760334679
3.856,-35.9353074003417
3.862,-36.3338291465146
3.868,-36.723013007411
3.874,-37.1027293055325
3.88,-37.4728745792335
3.886,-37.8333718025284
3.892,-38.1841704681701
3.898,-38.525246499598
3.904,-38.8566019650912
3.91,-39.1782645759401
3.916,-39.4902869593065
3.922,-39.7927457052992
3.928,-40.0857401962601
3.934,-40.3693912339901
3.94,-40.6438394873303
3.946,-40.9092437879252
3.952,-41.1657793059703
3.958,-41.4136356402161
3.964,-41.6530148574965
3.97,-41.8841295166406
3.976,-42.1072007099953
3.982,-42.3224561531182
3.988,-42.5301283497388
3.994,-42.7304528550647
4,-42.9236666561752
4.006,-43.1100066838086
4.012,-43.2897084655018
4.018,-43.4630049259453
4.024,-43.6301253366767
4.03,-43.7912944139486
4.036,-43.9467315608072
4.042,-44.0966502471306
4.048,-44.2412575195846
4.054,-44.3807536321435
4.06,-44.5153317869394
4.066,-44.6451779747037
4.072,-44.7704709038947
4.078,-44.891382007703
4.084,-45.0080755184453
4.09,-45.1207085993421
4.096,-45.2294315242798
4.102,-45.3343878968492
4.108,-45.4357149006883
4.114,-45.5335435739129
4.12,-45.6279991011787
4.126,-45.7192011176495
4.132,-45.8072640198558
4.138,-45.8922972790847
4.144,-45.9744057535659
4.15,-46.0536899962754
4.156,-46.1302465557005
4.162,-46.2041682673669
4.168,-46.2755445343476
4.174,-46.344461595335
4.18,-46.4110027791853
4.186,-46.4752487451244
4.192,-46.5372777080504
4.198,-46.5971656485812
4.204,-46.6549865076764
4.21,-46.7108123658199
4.216,-46.7647136068817
4.222,-46.816759066885
4.228,-46.8670161680064
4.234,-46.9155510382041
4.24,-46.96242861694
4.246,-47.0077127475125
4.252,-47.0514662565545
4.258,-47.0937510212896
4.264,-47.1346280251608
4.27,-47.1741574024672
4.276,-47.2123984726556
4.282,-47.2494097649261
4.288,-47.2852490338111
4.294,-47.3199732663913
4.3,-47.3536386818086
4.306,-47.3863007237337
4.312,-47.4180140464353
4.318,-47.4488324950933
4.324,-47.4788090809848
4.33,-47.5079959521605
4.336,-47.5364443602158
4.342,-47.5642046237449
4.348,-47.5913260890516
4.354,-47.6178570886703
4.36,-47.6438448982365
4.366,-47.6693356922228
4.372,-47.6943744990378
4.378,-47.719005155965
4.384,-47.7432702643945
4.39,-47.7672111457783
4.396,-47.7908677987185
4.402,-47.814278857569
4.408,-47.8374815529101
4.414,-47.860511674228
4.42,-47.883403535105
4.426,-47.9061899412017
4.432,-47.9289021612816
4.438,-47.951569901506
4.444,-47.9742212831977
4.45,-47.9968828242437
4.456,-48.0195794242841
4.462,-48.0423343538027
4.468,-48.0651692472136
4.474,-48.088104100009
4.48,-48.1111572700104
4.486,-48.1343454827407
4.492,-48.1576838409135
4.498,-48.1811858380111
4.504,-48.2048633759066
4.51,-48.2287267864632
4.516,-48.2527848570279
4.522,-48.2770448597212
4.528,-48.3015125844118
4.534,-48.3261923752492
4.54,-48.3510871706221
4.546,-48.3761985463981
4.552,-48.4015267622957
4.558,-48.4270708112345
4.564,-48.4528284715066
4.57,-48.478796361612
4.576,-48.5049699975996
4.582,-48.5313438527616
4.588,-48.5579114195286
4.594,-48.5846652734216
4.6,-48.6115971389235
4.606,-48.6386979571389
4.612,-48.6659579551223
4.618,-48.6933667167657
4.624,-48.7209132551438
4.63,-48.7485860862318
4.636,-48.77637330392
4.642,-48.8042626562623
4.648,-48.8322416229115
4.654,-48.8602974937031
4.66,-48.8884174483672
4.666,-48.9165886373577
4.672,-48.944798263803
4.678,-48.9730336665934
4.684,-49.0012824046347
4.69,-49.0295323423056
4.696,-49.0577717361708
4.702,-49.0859893230089
4.708,-49.1141744092246
4.714,-49.1423169617228
4.72,-49.1704077003267
4.726,-49.1984381918315
4.732,-49.2264009457856
4.738,-49.2542895120948
4.744,-49.2820985805483
4.75,-49.3098240823587
4.756,-49.3374632938134
4.762,-49.3650149421187
4.768,-49.3924793135225
4.774,-49.4198583637792
4.78,-49.4471558310173
4.786,-49.4743773510453
4.792,-49.501530575118
4.798,-49.5286252901573
4.804,-49.5556735413951
4.81,-49.5826897573735
4.816,-49.6096908771992
4.822,-49.6366964799053
4.828,-49.6637289157272
4.834,-49.6908134390414
4.84,-49.7179783426552
4.846,-49.7452550930666
4.852,-49.7726784662363
4.858,-49.8002866833298
4.864,-49.8281215457947
4.87,-49.8562285690375
4.876,-49.8846571138563
4.882,-49.9134605146658
4.888,-49.9426962034299
4.894,-49.9724258280839
4.9,-50.0027153640884
4.906,-50.0336352176195
4.912,-50.0652603187499
4.918,-50.0976702028327
4.924,-50.130949078155
4.93,-50.1651858777905
4.936,-50.2004742934538
4.942,-50.2369127890412
4.948,-50.2746045914543
4.954,-50.3136576562277
4.96,-50.354184605452
4.966,-50.3963026354813
4.972,-50.4401333919642
4.978,-50.4858028098433
4.984,-50.5334409161273
4.99,-50.583181593478
4.996,-50.6351623029541
5.002,-50.6895237646462
5.008,-50.7464095953992
5.014,-50.8059659033734
5.02,-50.8683408398248
5.026,-50.9336841091962
5.032,-51.0021464393874
5.038,-51.073879014902
5.044,-51.1490328764452
5.05,-51.2277582914313
5.056,-51.3102041007448
5.062,-51.3965170479494
5.068,-51.4868410979153
5.074,-51.5813167525274
5.08,-51.6800803716826
5.086,-51.783263508172
5.092,-51.89099226524
5.098,-52.0033866855773
5.104,-52.1205601802347
5.11,-52.2426190054185
5.116,-52.369661794331
5.122,-52.5017791501767
5.128,-52.6390533051451
5.134,-52.7815578486628
5.14,-52.9293575264682
5.146,-53.0825081101717
5.152,-53.2410563349324
5.158,-53.4050399007685
5.164,-53.5744875308473
5.17,-53.7494190779208
5.176,-53.9298456679034
5.182,-54.1157698674596
5.188,-54.3071858603917
5.194,-54.504079615587
5.2,-54.7064290273036
5.206,-54.9142040066035
5.212,-55.1273665007666
5.218,-55.3458704154851
5.224,-55.569661412498
5.23,-55.7986765530343
5.236,-56.0328437549302
5.242,-56.2720810285342
5.248,-56.5162954534807
5.254,-56.7653818551024
5.26,-57.0192211356961
5.266,-57.2776782121558
5.272,-57.5405995078244
5.278,-57.8078099430846
5.284,-58.0791093666678
5.29,-58.3542683685617
5.296,-58.6330234167001
5.302,-58.915071264578
5.308,-59.2000625872948
5.314,-59.4875948215033
5.32,-59.7772042131442
5.326,-60.0683571190919
5.332,-60.3604406688547
5.338,-60.6527529745155
5.344,-60.9444931852189
5.35,-61.2347518197488
5.356,-61.5225019777629
5.362,-61.8065922234247
5.368,-62.0857421440705
5.374,-62.3585417910216
5.38,-62.6234563772021
5.386,-62.8788376905148
5.392,-63.1229436243766
5.398,-63.3539669628706
5.404,-63.5700740302836
5.41,-63.7694529931688
5.416,-63.950370508979
5.422,-64.1112341439873
5.428,-64.2506567126998
5.434,-64.3675176667616
5.44,-64.461016149698
5.446,-64.5307105493478
5.452,-64.5765404075925
5.458,-64.5988282899683
5.464,-64.5982613976538
5.47,-64.5758549247283
5.476,-64.5329010167891
5.482,-64.4709083654392
5.488,-64.3915378429831
5.494,-64.296539195832
5.5,-64.1876928691027
5.506,-64.0974648993931
5.512,-64.0048555234127
5.518,-63.9098488293876
5.524,-63.8124303659517
5.53,-63.7125872294342
5.536,-63.610308153558
5.542,-63.5055836015348
5.548,-63.3984058605354
5.554,-63.288769138512
5.56,-63.1766696633474
5.566,-63.062105784299
5.572,-62.9450780757054
5.578,-62.8255894429145
5.584,-62.7036452303908
5.59,-62.5792533319492
5.596,-62.4524243030566
5.602,-62.3231714751304
5.608,-62.1915110717503
5.614,-62.0574623266843
5.62,-61.9210476036071
5.626,-61.7822925173663
5.632,-61.6412260566191
5.638,-61.4978807076256
5.644,-61.3522925789423
5.65,-61.2045015267014
5.656,-61.0545512801057
5.662,-60.9024895666905
5.668,-60.7483682368233
5.674,-60.592243386815
5.68,-60.4341754799054
5.686,-60.2742294642644
5.692,-60.1124748870117
5.698,-59.9489860031063
5.704,-59.7838418777895
5.71,-59.6171264810863
5.716,-59.4489287726776
5.722,-59.2793427752506
5.728,-59.1084676342228
5.734,-58.9364076615217
5.74,-58.763272360879
5.746,-58.5891764318912
5.752,-58.4142397498919
5.758,-58.2385873185032
5.764,-58.0623491915758
5.77,-57.8856603611129
5.776,-57.7086606077055
5.782,-57.5314943100012
5.788,-57.3543102097995
5.794,-57.1772611295202
5.8,-57.0005036390532
5.806,-56.8241976693654
5.812,-56.6485060707356
5.818,-56.4735941141163
5.824,-56.2996289348809
5.83,-56.1267789191221
5.836,-55.9552130336987
5.842,-55.7851001023904
5.848,-55.6166080317884
5.854,-55.4499029918981
5.86,-55.2851485578333
5.866,-55.1225048203966
5.872,-54.9621274747208
5.878,-54.8041668974465
5.884,-54.6487672240729
5.89,-54.4960654390867
5.896,-54.3461904921965
5.902,-54.1992624544291
5.908,-54.0553917279329
5.914,-53.9146783230545
5.92,-53.7772112155964
5.926,-53.6430677961098
5.932,-53.5123134216576
5.938,-53.3850010787262
5.944,-53.2611711639097
5.95,-53.1408513867215
5.956,-53.0240567964561
5.962,-52.9107899325345
5.968,-52.8010410952899
5.974,-52.6947887317807
5.98,-52.5919999290346
5.986,-52.4926310051982
5.992,-52.3966281874541
5.998,-52.3039283643048
6.004,-52.2144598989493
6.01,-52.1281434899849
6.016,-52.0448930655606
6.022,-51.9646166973532
6.028,-51.8872175213079
6.034,-51.8125946529274
6.04,-51.7406440859616
6.046,-51.6712595645882
6.052,-51.6043334205239
6.058,-51.5397573679174
