"Freq [GHz]","dB(St(3,3)) []"
1,1.56284412877571
1.006,0.0816750173611779
1.012,-1.07110400580436
1.018,-1.87742586391873
1.024,-2.42642819730981
1.03,-2.78164086453069
1.036,-3.03201423249963
1.042,-3.22108621722567
1.048,-3.37781495881519
1.054,-3.5122412777141
1.06,-3.62845251983053
1.066,-3.72715516690803
1.072,-3.81412032301575
1.078,-3.8773019296248
1.084,-3.92601780778602
1.09,-3.95891163860478
1.096,-3.97692929211569
1.102,-3.98247318648614
1.108,-3.96633823244984
1.114,-3.94918995814519
1.12,-3.92009988775905
1.126,-3.88275395358792
1.132,-3.83890481754325
1.138,-3.79005389789833
1.144,-3.7373106007035
1.15,-3.68159518208963
1.156,-3.62368089132575
1.162,-3.56406751622363
1.168,-3.50309010954513
1.174,-3.44088213748983
1.18,-3.37739593927271
1.186,-3.31243389517638
1.192,-3.24568389886591
1.198,-3.17675647232609
1.204,-3.10522192994565
1.21,-3.03064633891838
1.216,-2.95262507947399
1.222,-2.87081278869378
1.228,-2.78494849762275
1.234,-2.69487490989778
1.24,-2.60055104322196
1.246,-2.50205784619377
1.252,-2.3995968641776
1.258,-2.29348248554195
1.264,-2.18412863639107
1.27,-2.07203060155538
1.276,-1.95773713561039
1.282,-1.83155954203042
1.288,-1.72441004420329
1.294,-1.60747509704507
1.3,-1.49036365309225
1.306,-1.37389906900415
1.312,-1.25864923733452
1.318,-1.14509534569567
1.324,-1.03365655849344
1.33,-0.924696191998268
1.336,-0.81852460177636
1.342,-0.715401749365685
1.348,-0.615540092051048
1.354,-0.519107863891928
1.36,-0.426232659867327
1.366,-0.337005202210887
1.372,-0.251483177362142
1.378,-0.169695059055518
1.384,-0.0916438751785096
1.39,-0.0173109516443111
1.396,0.0533401460424746
1.402,0.12035860891326
1.408,0.183796365999038
1.414,0.243664920985023
1.42,0.299110105042422
1.426,0.354767320517664
1.432,0.404517211603718
1.438,0.451500564673997
1.444,0.495566689070103
1.45,0.536785484616094
1.456,0.575253630579266
1.462,0.611073948647957
1.468,0.644350376952946
1.474,0.675186067896731
1.48,0.703682422975797
1.486,0.729938505363104
1.492,0.754050646199707
1.498,0.776112170389425
1.504,0.796213206006047
1.51,0.814440556860806
1.516,0.830877624872756
1.522,0.845604372588893
1.528,0.858697318387999
1.534,0.870229558344089
1.54,0.880270809766015
1.546,0.888887472231883
1.552,0.896142702584072
1.558,0.90209650088794
1.564,0.906787407504727
1.57,0.910290974736572
1.576,0.912740911712851
1.582,0.914177337631344
1.588,0.914639819966145
1.594,0.914167189530215
1.6,0.91279737951966
1.606,0.910567286989373
1.612,0.907512655203931
1.618,0.903667975336442
1.624,0.89906640605672
1.63,0.893739709671603
1.636,0.887718203685975
1.642,0.881030727010116
1.648,0.873704620700102
1.654,0.865765724442211
1.66,0.85723839289277
1.666,0.848145543000234
1.672,0.838508762492836
1.678,0.828348569565245
1.684,0.817685142437039
1.69,0.806541006656206
1.696,0.794957201404102
1.702,0.783527273390722
1.708,0.769990382085768
1.714,0.757099608329089
1.72,0.74370737264432
1.726,0.729878698388584
1.732,0.715630150519734
1.738,0.700970441919787
1.744,0.68590530454773
1.75,0.670438641555185
1.756,0.654572913772832
1.762,0.638309306426698
1.768,0.621647818550189
1.774,0.604587321939271
1.78,0.587125608812277
1.786,0.569259439127043
1.792,0.550984598169843
1.798,0.532295981116894
1.804,0.513187738800006
1.81,0.493653566134055
1.816,0.473687354770948
1.822,0.453284920372325
1.828,0.432449682045936
1.834,0.411219364097915
1.84,0.389950351496395
1.846,0.365088630497184
1.852,0.3433541836012
1.858,0.320136720037662
1.864,0.296264514573111
1.87,0.271791859067869
1.876,0.246717510531494
1.882,0.221027241177419
1.888,0.194701753647012
1.894,0.167718896163431
1.9,0.140054429244272
1.906,0.11168231808272
1.912,0.0825748396893391
1.918,0.0527026069321694
1.924,0.0220345504215347
1.93,-0.00946212371150239
1.936,-0.0418219916000063
1.942,-0.0750814807377138
1.948,-0.10927894821337
1.954,-0.14445476697861
1.96,-0.180651419626684
1.966,-0.217913599493657
1.972,-0.256288319096237
1.978,-0.295825026051302
1.984,-0.336575726712192
1.99,-0.378595117823905
1.996,-0.421940726552831
2.002,-0.466673059293048
2.008,-0.512855759693599
2.014,-0.560555776392437
2.02,-0.609843540984394
2.026,-0.660793156793649
2.032,-0.713482599067579
2.038,-0.767993927258686
2.044,-0.82441351011649
2.05,-0.882832264372529
2.056,-0.943345907870485
2.062,-1.00605522807153
2.068,-1.07106636695428
2.074,-1.13849112343143
2.08,-1.20844727452391
2.086,-1.28105891667172
2.092,-1.35645682872255
2.098,-1.43477885832908
2.104,-1.51617033370987
2.11,-1.60078450299369
2.116,-1.68878300368115
2.122,-1.78033636513089
2.128,-1.87458235620915
2.134,-1.97174103448609
2.14,-2.07306580689995
2.146,-2.17876956817596
2.152,-2.28907762533651
2.158,-2.4042285534759
2.164,-2.52447513169915
2.17,-2.65008537039274
2.176,-2.78134364303378
2.182,-2.91855193820102
2.188,-3.06203125041922
2.194,-3.21212313206292
2.2,-3.36919143290915
2.206,-3.53362425924286
2.212,-3.70583619091032
2.218,-3.8862708026768
2.224,-4.07540354604448
2.23,-4.27374505980833
2.236,-4.48184499269275
2.242,-4.70029644024118
2.248,-4.92974112180624
2.254,-5.17087545345254
2.26,-5.42445771078314
2.266,-5.69131652477216
2.272,-5.97236101725776
2.278,-6.26859296584741
2.284,-6.58112149766855
2.29,-6.911180957676
2.296,-7.26015279451141
2.302,-7.62959257619975
2.308,-8.02126362034893
2.314,-8.43717924573351
2.32,-8.87965639572793
2.326,-9.35138446059207
2.332,-9.85551471283688
2.338,-10.3957781574949
2.344,-10.9766432714296
2.35,-11.6035308958945
2.356,-12.2831129333636
2.362,-13.0237372043648
2.368,-13.8360480565068
2.374,-14.7339215511248
2.38,-15.7359274485253
2.386,-16.8677177718643
2.392,-18.1661450098667
2.398,-19.6868554559518
2.404,-21.5195460469876
2.41,-23.8222923611774
2.416,-26.9114863272934
2.422,-31.5443446830899
2.428,-39.088058356983
2.434,-35.4685564932626
2.44,-29.3584221249434
2.446,-25.6485019460475
2.452,-23.054561176209
2.458,-21.0755353741082
2.464,-19.4833793721683
2.47,-18.1567406894054
2.476,-17.023656714215
2.482,-16.0380185527494
2.488,-15.1685251295377
2.494,-14.3929555644422
2.5,-13.6949625069513
2.506,-13.0621645819377
2.512,-12.4849544846951
2.518,-11.9557233721549
2.524,-11.468338631883
2.53,-11.0177818805399
2.536,-10.5998916581048
2.542,-10.2111764969082
2.548,-9.84867648115119
2.554,-9.50985895500786
2.56,-9.19253874986856
2.566,-8.8948163243617
2.572,-8.61502919635291
2.578,-8.351713378141
2.584,-8.10357243690119
2.59,-7.86945243615291
2.596,-7.64832146198314
2.602,-7.43925275901104
2.608,-7.24141073455639
2.614,-7.0540392612466
2.62,-6.87645183611313
2.626,-6.70802325033988
2.632,-6.54818249680504
2.638,-6.39640669847976
2.644,-6.25221588396132
2.65,-6.11516847008185
2.656,-5.98485733795097
2.662,-5.86090640966901
2.668,-5.74296764955683
2.674,-5.63071842704423
2.68,-5.52385918906563
2.686,-5.42211139848213
2.692,-5.32521570210693
2.698,-5.23293029768679
2.704,-5.14502947394059
2.71,-5.06130230167884
2.716,-4.98155145728179
2.722,-4.90559216252621
2.728,-4.83325122701948
2.734,-4.76436618140526
2.74,-4.69878449111236
2.746,-4.63636284177849
2.752,-4.57696648863561
2.758,-4.52046866312852
2.764,-4.46675003088054
2.77,-4.41569819584273
2.776,-4.36720724608563
2.782,-4.32117733722923
2.788,-4.27751430997355
2.794,-4.23612933859572
2.8,-4.19693860763302
2.806,-4.15986301427939
2.812,-4.12482789429365
2.818,-4.09176276945556
2.824,-4.06060111481605
2.83,-4.03128014417363
2.836,-4.00374061237455
2.842,-3.97792663318103
2.848,-3.95378551158381
2.854,-3.93126758955302
2.86,-3.91032610432821
2.866,-3.89091705844413
2.872,-3.87299910077664
2.878,-3.85653341797288
2.884,-3.84148363570286
2.89,-3.82781572923752
2.896,-3.81549794292068
2.902,-3.80450071816126
2.908,-3.79479662962675
2.914,-3.78636032937162
2.92,-3.77916849868387
2.926,-3.77319980748093
2.932,-3.76843488113309
2.938,-3.76485627463759
2.944,-3.76244845411241
2.95,-3.76119778562301
2.956,-3.76109253140081
2.962,-3.76212285355792
2.968,-3.76428082544906
2.974,-3.76756045087982
2.98,-3.77195769140975
2.986,-3.77747050205065
2.992,-3.78409887571397
2.998,-3.79184489681789
3.004,-3.80071280452405
3.01,-3.81070906613665
3.016,-3.82184246126254
3.022,-3.8341241774011
3.028,-3.8475679177061
3.034,-3.86219002173985
3.04,-3.87800960012119
3.046,-3.89504868405462
3.052,-3.91333239081691
3.058,-3.93288910636893
3.064,-3.95375068635505
3.07,-3.97595267684661
3.076,-3.99953455627973
3.082,-4.02454000012826
3.088,-4.05101716993562
3.094,-4.07901902840235
3.1,-4.10860368228123
3.106,-4.13983475486431
3.112,-4.17278178984375
3.118,-4.20752068828171
3.124,-4.24413418031606
3.13,-4.28271233304077
3.136,-4.32335309570671
3.142,-4.3661628829605
3.148,-4.41125719623695
3.154,-4.45876128259743
3.16,-4.50881082920217
3.166,-4.5615526901458
3.172,-4.61714564048262
3.178,-4.67576114980898
3.184,-4.73758416462053
3.19,-4.80281388465625
3.196,-4.87166451338079
3.202,-4.94436595640341
3.208,-5.02116443369952
3.214,-5.10232296165734
3.22,-5.18812164882361
3.226,-5.27885773432229
3.232,-5.37484527976161
3.238,-5.47641440347629
3.244,-5.58390991958758
3.25,-5.69768921303106
3.256,-5.81955061915559
3.262,-5.94862811416658
3.268,-6.08524989824645
3.274,-6.22972757772089
3.28,-6.38234634163703
3.286,-6.54335304269652
3.292,-6.71294193188542
3.298,-6.89123781688059
3.304,-7.07827646040961
3.31,-7.27398211666521
3.316,-7.47814223513355
3.322,-7.69037955858858
3.328,-7.9101221252755
3.334,-8.13657207552986
3.34,-8.36867467881857
3.346,-8.60508964713285
3.352,-8.84416757140963
3.358,-9.08393515601807
3.364,-9.32209371755248
3.37,-9.55603596160301
3.376,-9.78288606952031
3.382,-9.99956726785246
3.388,-10.2028989830487
3.394,-10.389722228595
3.4,-10.5570472011791
3.406,-10.7022118504028
3.412,-10.8230356245573
3.418,-10.9179501537425
3.424,-10.9860895597536
3.43,-11.0273278103783
3.436,-11.0422582972648
3.442,-11.0321197625787
3.448,-10.9986805377118
3.454,-10.9440979172299
3.46,-10.8707705738868
3.466,-10.7811996270565
3.472,-10.6778695388245
3.478,-10.5631548964705
3.484,-10.4392545440894
3.49,-10.3081511307881
3.496,-10.1715921234824
3.502,-10.031087515304
3.508,-9.88791951100673
3.514,-9.74316003681333
3.52,-9.5976927159691
3.526,-9.45223677515451
3.532,-9.30737108683866
3.538,-9.16355715778247
3.544,-9.02116033437415
3.55,-8.88046882426
3.556,-8.74171035403473
3.562,-8.60506642043897
3.568,-8.47068417210873
3.574,-8.33868600186947
3.58,-8.20917695362387
3.586,-8.08225006693447
3.592,-7.95798980629584
3.598,-7.83647375634013
3.604,-7.7177728096994
3.61,-7.60195012714829
3.616,-7.48905920202777
3.622,-7.37914140210485
3.628,-7.27222338073625
3.634,-7.16831473647708
3.64,-7.06740625194288
3.646,-6.96946896114029
3.652,-6.87445418861989
3.658,-6.78229458768941
3.664,-6.69290609461798
3.67,-6.60619062588384
3.676,-6.52203928627658
3.682,-6.44033583118092
3.688,-6.36096013463392
3.694,-6.28379144896287
3.7,-6.20871129253674
3.706,-6.13560585956551
3.712,-6.06436790150703
3.718,-5.99489807746474
3.724,-5.92710580766032
3.73,-5.86090968872381
3.736,-5.7962375430259
3.742,-5.73302617851973
3.748,-5.67122093293782
3.754,-5.61077506905464
3.76,-5.55164907810655
3.766,-5.49380993794587
3.772,-5.43723036221139
3.778,-5.38188806742881
3.784,-5.32776507688103
3.79,-5.27484707343772
3.796,-5.22312280827205
3.802,-5.17258356838841
3.808,-5.12322270296229
3.814,-5.0750352064594
3.82,-5.02801735517487
3.826,-4.98216639304842
3.832,-4.93748026223071
3.838,-4.89395737378403
3.844,-4.85159641400736
3.85,-4.81039618211176
3.856,-4.77035545528486
3.862,-4.73147287753577
3.868,-4.69374686907554
3.874,-4.65717555334771
3.88,-4.62175669916422
3.886,-4.58748767571933
3.892,-4.5543654185428
3.898,-4.52238640471382
3.904,-4.49154663588804
3.91,-4.46184162789354
3.916,-4.43326640583032
3.922,-4.40581550376204
3.928,-4.37948296822365
3.934,-4.35426236488339
3.94,-4.33014678779741
3.946,-4.30712887077975
3.952,-4.28520080048332
3.958,-4.26435433084906
3.964,-4.24458079863319
3.97,-4.22587113976703
3.976,-4.20821590634179
3.982,-4.19160528404276
3.988,-4.17602910988446
3.994,-4.16147689012152
4,-4.14793781822915
4.006,-4.13540079286376
4.012,-4.12385443572804
4.018,-4.11328710927676
4.024,-4.10368693420917
4.03,-4.09504180670268
4.036,-4.08733941534942
4.042,-4.08056725776339
4.048,-4.07471265683126
4.054,-4.06976277658395
4.06,-4.06570463767045
4.066,-4.06252513241793
4.072,-4.06021103946568
4.078,-4.05874903796228
4.084,-4.05812572131809
4.09,-4.05832761050638
4.096,-4.05934116690878
4.102,-4.06115280470152
4.108,-4.06374890278085
4.114,-4.06711581622662
4.12,-4.07123988730459
4.126,-4.07610745600866
4.132,-4.0817048701452
4.138,-4.08801849496247
4.144,-4.09503472232889
4.15,-4.10273997946445
4.156,-4.11112073723046
4.162,-4.12016351798308
4.168,-4.12985490299683
4.174,-4.14018153946476
4.18,-4.15113014708222
4.186,-4.16268752422188
4.192,-4.17484055370775
4.198,-4.18757620819641
4.204,-4.20088155517402
4.21,-4.21474376157787
4.216,-4.22915009805144
4.222,-4.24408794284232
4.228,-4.25954478535236
4.234,-4.27550822934958
4.24,-4.29196599585166
4.246,-4.30890592569076
4.252,-4.32631598176957
4.258,-4.34418425101855
4.264,-4.36249894606435
4.27,-4.38124840661939
4.276,-4.40042110060259
4.282,-4.42000562500119
4.288,-4.43999070648361
4.294,-4.46036520177324
4.3,-4.48111809779279
4.306,-4.50223851158907
4.312,-4.52371569004772
4.318,-4.54553900940734
4.324,-4.56769797458243
4.33,-4.59018221830439
4.336,-4.61298150008964
4.342,-4.63608570504388
4.348,-4.65948484251122
4.354,-4.68316904457695
4.36,-4.70712856443247
4.366,-4.73135377461066
4.372,-4.75583516509998
4.378,-4.7805633413454
4.384,-4.80552902214405
4.39,-4.83072303744334
4.396,-4.85613632604925
4.402,-4.88175993325224
4.408,-4.90758500837818
4.414,-4.93360280227153
4.42,-4.95980466471789
4.426,-4.98618204181284
4.432,-5.01272647328409
4.438,-5.0394295897737
4.444,-5.06628311008694
4.45,-5.09327883841453
4.456,-5.12040866153475
4.462,-5.14766454600182
4.468,-5.17503853532704
4.474,-5.20252274715888
4.48,-5.2301093704685
4.486,-5.25779066274674
4.492,-5.2855589472189
4.498,-5.31340661008357
4.504,-5.34132609778147
4.51,-5.36930991430063
4.516,-5.39735061852407
4.522,-5.42544082162595
4.528,-5.45357318452251
4.534,-5.48174041538397
4.54,-5.50993526721341
4.546,-5.53815053549893
4.552,-5.56637905594539
4.558,-5.59461370229168
4.564,-5.62284738422006
4.57,-5.6510730453636
4.576,-5.67928366141819
4.582,-5.70747223836521
4.588,-5.73563181081129
4.594,-5.7637554404514
4.6,-5.79183621466154
4.606,-5.81986724522735
4.612,-5.84784166721479
4.618,-5.8757526379892
4.624,-5.90359333638881
4.63,-5.93135696205879
4.636,-5.95903673495184
4.642,-5.98662589500134
4.648,-6.01411770197249
4.654,-6.04150543549754
4.66,-6.06878239530011
4.666,-6.09594190161418
4.672,-6.12297729580257
4.678,-6.14988194117988
4.684,-6.17664922404421
4.69,-6.20327255492203
4.696,-6.2297453700298
4.702,-6.25606113295612
4.708,-6.28221333656714
4.714,-6.30819550513798
4.72,-6.33400119671228
4.726,-6.35962400569127
4.732,-6.38505756565352
4.738,-6.41029555240576
4.744,-6.43533168726425
4.75,-6.46015974056609
4.756,-6.48477353540857
4.762,-6.50916695161415
4.768,-6.53333392991787
4.774,-6.55726847637308
4.78,-6.58096466697054
4.786,-6.60441665246514
4.792,-6.62761866340326
4.798,-6.65056501534339
4.804,-6.67325011426095
4.81,-6.69566846212795
4.816,-6.71781466265668
4.822,-6.73968342719578
4.828,-6.76126958076599
4.834,-6.78256806822197
4.84,-6.80357396052539
4.846,-6.82428246111377
4.852,-6.84468891234828
4.858,-6.8647888020231
4.864,-6.88457776991776
4.87,-6.9040516143732
4.876,-6.92320629887148
4.882,-6.94203795859819
4.888,-6.96054290696603
4.894,-6.97871764207744
4.9,-6.9965588531036
4.906,-7.01406342655645
4.912,-7.03122845243057
4.918,-7.0480512301908
4.924,-7.0645292745819
4.93,-7.08066032123614
4.936,-7.0964423320551
4.942,-7.1118735003416
4.948,-7.12695225565883
4.954,-7.14167726839318
4.96,-7.1560474539987
4.966,-7.17006197690124
4.972,-7.18372025404137
4.978,-7.19702195803604
4.984,-7.20996701993998
4.99,-7.22255563158912
4.996,-7.23478824750936
5.002,-7.24666558637572
5.008,-7.25818863200818
5.014,-7.26935863389219
5.02,-7.2801771072135
5.026,-7.29064583239882
5.032,-7.30076685415551
5.038,-7.31054248000549
5.044,-7.31997527831055
5.05,-7.32906807578808
5.056,-7.33782395451845
5.062,-7.34624624844706
5.068,-7.35433853938637
5.074,-7.36210465252504
5.08,-7.36954865145333
5.086,-7.37667483271597
5.092,-7.38348771990547
5.098,-7.38999205731084
5.104,-7.39619280313826
5.11,-7.40209512232212
5.116,-7.40770437894639
5.122,-7.41302612829759
5.128,-7.41806610857231
5.134,-7.42283023226323
5.14,-7.42732457724891
5.146,-7.43155537761327
5.152,-7.4355290142222
5.158,-7.43925200508457
5.164,-7.44273099552628
5.17,-7.44597274820594
5.176,-7.44898413300119
5.182,-7.45177211679482
5.188,-7.45434375318987
5.194,-7.45670617218259
5.2,-7.45886656982201
5.206,-7.46083219788445
5.212,-7.46261035359063
5.218,-7.46420836939244
5.224,-7.46563360285577
5.23,-7.4668934266647
5.236,-7.4679952187715
5.242,-7.46894635271588
5.248,-7.46975418813561
5.254,-7.47042606148961
5.26,-7.47096927701308
5.266,-7.47139109792323
5.272,-7.47169873789245
5.278,-7.4718993528047
5.284,-7.47200003280909
5.29,-7.47200779468359
5.296,-7.47192957451991
5.302,-7.47177222073958
5.308,-7.47154248744941
5.314,-7.47124702814346
5.32,-7.47089238975689
5.326,-7.47048500707599
5.332,-7.47003119750717
5.338,-7.46953715620645
5.344,-7.46900895156977
5.35,-7.46845252108323
5.356,-7.46787366753119
5.362,-7.46727805555915
5.368,-7.46667120858721
5.374,-7.46605850606914
5.38,-7.46544518109092
5.386,-7.46483631830203
5.392,-7.46423685217191
5.398,-7.46365156556331
5.404,-7.46308508861362
5.41,-7.46254189791473
5.416,-7.46202631598156
5.422,-7.46154251099873
5.428,-7.46109449683473
5.434,-7.46068613331255
5.44,-7.46032112672535
5.446,-7.46000303058584
5.452,-7.45973524659755
5.458,-7.45952102583644
5.464,-7.45936347013094
5.47,-7.45926553362878
5.476,-7.4592300245388
5.482,-7.4592596070362
5.488,-7.45935680331973
5.494,-7.45952399580934
5.5,-7.45976342947348
5.506,-7.46225631836083
5.512,-7.46475404921741
5.518,-7.46725706975596
5.524,-7.46976579653305
5.53,-7.47228061463188
5.536,-7.47480187737707
5.542,-7.47732990607799
5.548,-7.47986498979792
5.554,-7.48240738514567
5.56,-7.48495731608705
5.566,-7.48751497377298
5.572,-7.49008051638165
5.578,-7.49265406897185
5.584,-7.4952357233448
5.59,-7.49782553791196
5.596,-7.50042353756629
5.602,-7.50302971355462
5.608,-7.50564402334885
5.614,-7.50826639051366
5.62,-7.51089670456902
5.626,-7.51353482084513
5.632,-7.51618056032829
5.638,-7.51883370949576
5.644,-7.52149402013822
5.65,-7.52416120916808
5.656,-7.52683495841262
5.662,-7.52951491439038
5.668,-7.53220068806992
5.674,-7.53489185460982
5.68,-7.53758795307922
5.686,-7.5402884861579
5.692,-7.54299291981549
5.698,-7.54570068296931
5.704,-7.54841116712033
5.71,-7.55112372596724
5.716,-7.55383767499837
5.722,-7.55655229106155
5.728,-7.55926681191229
5.734,-7.56198043574031
5.74,-7.5646923206752
5.746,-7.56740158427171
5.752,-7.57010730297554
5.758,-7.57280851157065
5.764,-7.57550420260919
5.77,-7.57819332582545
5.776,-7.58087478753534
5.782,-7.58354745002324
5.788,-7.58621013091794
5.794,-7.5888616025602
5.8,-7.59150059136397
5.806,-7.59412577717415
5.812,-7.59673579262371
5.818,-7.59932922249333
5.824,-7.60190460307697
5.83,-7.60446042155724
5.836,-7.60699511539433
5.842,-7.60950707173314
5.848,-7.61199462683315
5.854,-7.61445606552594
5.86,-7.61688962070603
5.866,-7.61929347286047
5.872,-7.6216657496436
5.878,-7.62400452550327
5.884,-7.62630782136564
5.89,-7.62857360438584
5.896,-7.63079978777236
5.902,-7.63298423069332
5.908,-7.63512473827339
5.914,-7.63721906169047
5.92,-7.63926489838179
5.926,-7.64125989236943
5.932,-7.64320163471587
5.938,-7.64508766412051
5.944,-7.64691546766861
5.95,-7.64868248174457
5.956,-7.65038609312175
5.962,-7.65202364024165
5.968,-7.6535924146954
5.974,-7.65508966292105
5.98,-7.65651258813023
5.986,-7.65785835247837
5.992,-7.6591240794923
5.998,-7.66030685676978
6.004,-7.66140373896508
6.01,-7.66241175107516
6.016,-7.66332789204031
6.022,-7.6641491386735
6.028,-7.664872449932
6.034,-7.6654947715443
6.04,-7.66601304100521
