"Freq [GHz]","dB(St(1,4)) []"
1,-25.8436239491629
1.006,-24.7020159101646
1.012,-23.1145709663672
1.018,-21.1787177253987
1.024,-19.5698346090898
1.03,-18.6086419135702
1.036,-18.1171806087371
1.042,-17.8655378549466
1.048,-17.7246256681726
1.054,-17.6363553401111
1.06,-17.5758127674991
1.066,-17.5320954611454
1.072,-17.5001585322321
1.078,-17.4774560431434
1.084,-17.4625432948658
1.09,-17.4544828115965
1.096,-17.452587265177
1.102,-17.4563077047103
1.108,-17.4651864121441
1.114,-17.4788396450508
1.12,-17.4969551199501
1.126,-17.5192976864691
1.132,-17.5457205098382
1.138,-17.5761808443571
1.144,-17.6107602663533
1.15,-17.649689517502
1.156,-17.6933780709199
1.162,-17.7424482128519
1.168,-17.7977727955309
1.174,-17.8605147858466
1.18,-17.9321652285446
1.186,-18.0145742254157
1.192,-18.1099670919324
1.198,-18.2209353170348
1.204,-18.3503900124568
1.21,-18.5014653265626
1.216,-18.6773622813037
1.222,-18.8811310348492
1.228,-19.1154020944195
1.234,-19.3820929275881
1.24,-19.6821315651119
1.246,-20.0152470761336
1.252,-20.3798726994275
1.258,-20.7731892687653
1.264,-21.1913086098674
1.27,-21.629567762496
1.276,-22.082884694952
1.282,-22.5461201374125
1.288,-23.0143977904257
1.294,-23.4833514066627
1.3,-23.9492856731143
1.306,-24.4092534339862
1.312,-24.8610621602342
1.318,-25.3032275186711
1.324,-25.7348925566208
1.33,-26.1557289386658
1.336,-26.5658332442567
1.342,-26.9656275821616
1.348,-27.3557703344274
1.354,-27.7370800266845
1.36,-28.1104732289687
1.366,-28.4769159805078
1.372,-28.8373873913628
1.378,-29.1928536674693
1.384,-29.5442507023756
1.39,-29.8924734676657
1.396,-30.238370629031
1.402,-30.5827430554495
1.408,-30.9263451353507
1.414,-31.2698880427238
1.42,-31.6140442962161
1.426,-31.9594531213622
1.432,-32.3067262607476
1.438,-32.6564539821621
1.444,-33.009211114597
1.45,-33.3655630003535
1.456,-33.7260712921795
1.462,-34.0912995501045
1.468,-34.461818605504
1.474,-34.83821166086
1.48,-35.2210790825366
1.486,-35.6110428191502
1.492,-36.0087503365795
1.498,-36.4148778969328
1.504,-36.830132914387
1.51,-37.2552549829583
1.516,-37.691014971007
1.522,-38.1382112867292
1.528,-38.5976619973775
1.534,-39.0701908736632
1.54,-39.5566045457034
1.546,-40.0576566807937
1.552,-40.5739932687832
1.558,-41.1060705315602
1.564,-41.6540334499988
1.57,-42.2175382938179
1.576,-42.7954970332909
1.582,-43.3857161587412
1.588,-43.9844002817684
1.594,-44.5854990172909
1.6,-45.1799080383785
1.606,-45.7546146224065
1.612,-46.2920298423751
1.618,-46.7699720410982
1.624,-47.1629621580139
1.63,-47.4453976746291
1.636,-47.5964551844703
1.642,-47.6052869032592
1.648,-47.4741474904204
1.654,-47.217733626378
1.66,-46.8591150266233
1.666,-46.4243963277515
1.672,-45.938293123988
1.678,-45.4216098256956
1.684,-44.8904529738398
1.69,-44.3565279988815
1.696,-43.8279078417383
1.702,-43.3098867612619
1.708,-42.8057361500562
1.714,-42.3173050560433
1.72,-41.8454690878008
1.726,-41.3904537038532
1.732,-40.9520614873066
1.738,-40.5298292717221
1.744,-40.1231353743758
1.75,-39.7312719255801
1.756,-39.3534930351495
1.762,-38.9890463502637
1.768,-38.6371932595447
1.774,-38.2972213754826
1.78,-37.9684517967335
1.786,-37.65024286951
1.792,-37.3419916278891
1.798,-37.043133721405
1.804,-36.7531423825286
1.81,-36.471526810408
1.816,-36.1978302257464
1.822,-35.9316277678979
1.828,-35.672524347461
1.834,-35.4201525278489
1.84,-35.1741704819644
1.846,-34.9342600514062
1.852,-34.7001249229334
1.858,-34.4714889283908
1.864,-34.2480944686647
1.87,-34.0297010586204
1.876,-33.8160839877306
1.882,-33.6070330898204
1.888,-33.4023516147106
1.894,-33.2018551943321
1.9,-33.0053708959624
1.906,-32.812736355487
1.912,-32.6237989839562
1.918,-32.4384152411319
1.924,-32.2564499701687
1.93,-32.0777757880292
1.936,-31.9022725266763
1.942,-31.729826720514
1.948,-31.5603311359417
1.954,-31.3936843392652
1.96,-31.2297902995483
1.966,-31.0685580233057
1.972,-30.9099012182263
1.978,-30.7537379833783
1.984,-30.5999905235872
1.99,-30.4485848858918
1.996,-30.2994507161814
2.002,-30.1525210342922
2.008,-30.007732026003
2.014,-29.8650228505112
2.02,-29.7243354621041
2.026,-29.585614444855
2.032,-29.4488068592824
2.038,-29.3138621000032
2.044,-29.1807317635016
2.05,-29.0493695252103
2.056,-28.9197310251718
2.062,-28.7917737616143
2.068,-28.6654569918319
2.074,-28.5407416398107
2.08,-28.4175902100956
2.086,-28.2959667074269
2.092,-28.1758365617241
2.098,-28.0571665580232
2.104,-27.93992477101
2.11,-27.8240805038201
2.116,-27.7096042308021
2.122,-27.5964675439684
2.128,-27.4846431028753
2.134,-27.3741045876993
2.14,-27.2648266552915
2.146,-27.1567848980124
2.152,-27.0499558051598
2.158,-26.944316726824
2.164,-26.8398458400095
2.17,-26.7365221168821
2.176,-26.6343252950038
2.182,-26.5332358494346
2.188,-26.4332349665854
2.194,-26.3343045197152
2.2,-26.2364270459757
2.206,-26.1395857249111
2.212,-26.043764358329
2.218,-25.9489473514634
2.224,-25.8551196953578
2.23,-25.7622669503999
2.236,-25.6703752309452
2.242,-25.5794311909713
2.248,-25.4894220107072
2.254,-25.4003353841884
2.26,-25.312159507689
2.266,-25.2248830689873
2.272,-25.1384952374233
2.278,-25.0529856547095
2.284,-24.9683444264587
2.29,-24.8845621143953
2.296,-24.8016297292174
2.302,-24.7195387240805
2.308,-24.6382809886743
2.314,-24.5578488438656
2.32,-24.4782350368825
2.326,-24.3994327370161
2.332,-24.3214355318159
2.338,-24.2442374237585
2.344,-24.1678328273682
2.35,-24.0922165667686
2.356,-24.0173838736477
2.362,-23.9433303856161
2.368,-23.8700521449411
2.374,-23.7975455976384
2.38,-23.725807592904
2.386,-23.6548353828686
2.392,-23.5846266226587
2.398,-23.5151793707448
2.404,-23.4464920895619
2.41,-23.3785636463833
2.416,-23.3113933144314
2.422,-23.2449807742058
2.428,-23.1793261150129
2.434,-23.1144298366754
2.44,-23.0502928514053
2.446,-22.9869164858183
2.452,-22.9243024830695
2.458,-22.8624530050906
2.464,-22.8013706349035
2.47,-22.74105837899
2.476,-22.6815196696916
2.482,-22.6227583676153
2.488,-22.5647787640185
2.494,-22.5075855831461
2.5,-22.4511839844908
2.506,-22.3955795649471
2.512,-22.3407783608276
2.518,-22.2867868497087
2.524,-22.2336119520728
2.53,-22.1812610327108
2.536,-22.1297419018492
2.542,-22.0790628159623
2.548,-22.0292324782324
2.554,-21.9802600386142
2.56,-21.9321550934646
2.566,-21.884927684692
2.572,-21.8385882983821
2.578,-21.793147862854
2.584,-21.7486177460995
2.59,-21.7050097525598
2.596,-21.6623361191895
2.602,-21.6206095107599
2.608,-21.5798430143531
2.614,-21.5400501329967
2.62,-21.5012447783903
2.626,-21.4634412626751
2.632,-21.4266542891984
2.638,-21.3908989422257
2.644,-21.3561906755542
2.65,-21.3225452999845
2.656,-21.2899789696072
2.662,-21.2585081668657
2.668,-21.2281496863572
2.674,-21.1989206173404
2.68,-21.1708383249184
2.686,-21.1439204298729
2.692,-21.1181847871287
2.698,-21.0936494628342
2.704,-21.0703327100468
2.71,-21.048252943023
2.716,-21.0274287101147
2.722,-21.007878665284
2.728,-20.989621538255
2.734,-20.9726761033301
2.74,-20.9570611469053
2.746,-20.9427954337299
2.752,-20.9298976719639
2.758,-20.9183864770949
2.764,-20.9082803347889
2.77,-20.8995975627544
2.776,-20.8923562717141
2.782,-20.8865743255823
2.788,-20.8822693009608
2.794,-20.8794584460714
2.8,-20.8781586392528
2.806,-20.8783863471579
2.812,-20.8801575827963
2.818,-20.8834878635701
2.824,-20.8883921694612
2.83,-20.8948849015305
2.836,-20.9029798408936
2.842,-20.9126901083433
2.848,-20.9240281247862
2.854,-20.9370055726656
2.86,-20.9516333585393
2.866,-20.9679215769792
2.872,-20.9858794759572
2.878,-21.0055154238743
2.884,-21.0268368783865
2.89,-21.0498503571696
2.896,-21.0745614107594
2.902,-21.1009745975897
2.908,-21.1290934613424
2.914,-21.1589205107078
2.92,-21.1904572016405
2.926,-21.2237039221837
2.932,-21.2586599799135
2.938,-21.2953235920462
2.944,-21.333691878228
2.95,-21.3737608560128
2.956,-21.415525439018
2.962,-21.4589794377277
2.968,-21.5041155628988
2.974,-21.5509254315077
2.98,-21.5993995751596
2.986,-21.6495274508677
2.992,-21.7012974540949
2.998,-21.7546969339377
3.004,-21.8097122103187
3.01,-21.8663285930444
3.016,-21.9245304025749
3.022,-21.9843009923428
3.028,-22.0456227724531
3.034,-22.1084772345889
3.04,-22.1728449779453
3.046,-22.2387057360091
3.052,-22.3060384040029
3.058,-22.3748210668109
3.064,-22.4450310272063
3.07,-22.5166448342021
3.076,-22.5896383113517
3.082,-22.6639865848318
3.088,-22.7396641111439
3.094,-22.8166447042811
3.1,-22.894901562213
3.106,-22.9744072925512
3.112,-23.0551339372663
3.118,-23.1370529963398
3.124,-23.2201354502432
3.13,-23.3043517811478
3.136,-23.3896719927801
3.142,-23.4760656288509
3.148,-23.5635017899953
3.154,-23.6519491491742
3.16,-23.7413759655011
3.166,-23.8317500964657
3.172,-23.9230390085434
3.178,-24.0152097861855
3.184,-24.108229139202
3.19,-24.2020634085559
3.196,-24.2966785706022
3.202,-24.3920402398141
3.208,-24.4881136700514
3.214,-24.5848637544351
3.22,-24.6822550239045
3.226,-24.7802516445426
3.232,-24.878817413766
3.238,-24.9779157554855
3.244,-25.0775097143553
3.25,-25.1775619492343
3.256,-25.274639194025
3.262,-25.3718463665699
3.268,-25.4691201019276
3.274,-25.5663950566595
3.28,-25.6636039791789
3.286,-25.760677792
3.292,-25.8575456864954
3.298,-25.9541352307235
3.304,-26.0503724908287
3.31,-26.1461821664454
3.316,-26.2414877404409
3.322,-26.3362116432326
3.328,-26.4302754317854
3.334,-26.5235999832559
3.34,-26.6161057030926
3.346,-26.7077127472258
3.352,-26.7983412577951
3.358,-26.8879116116578
3.364,-26.9763446807133
3.37,-27.0635621028582
3.376,-27.1494865621676
3.382,-27.2340420766724
3.388,-27.3171542918927
3.394,-27.3987507780789
3.4,-27.4787613289215
3.406,-27.5571182593287
3.412,-27.6337566997228
3.418,-27.708614884203
3.424,-27.7816344298482
3.43,-27.8527606044011
3.436,-27.9219425795934
3.442,-27.9891336674257
3.448,-28.0542915368333
3.454,-28.1173784083188
3.46,-28.1783612243437
3.466,-28.2372117935168
3.472,-28.2939069069076
3.478,-28.3484284251416
3.484,-28.4007633352823
3.49,-28.450903776888
3.496,-28.4988470370141
3.502,-28.544595514331
3.508,-28.5881566529154
3.514,-28.6295428466534
3.52,-28.668771315551
3.526,-28.7058639555775
3.532,-28.740847163966
3.538,-28.7737516421475
3.544,-28.804612178711
3.55,-28.8334674149436
3.556,-28.8603595956244
3.562,-28.8853343078106
3.568,-28.9084402103775
3.574,-28.9297287570454
3.58,-28.9492539155634
3.586,-28.96707188561
3.592,-28.9832408178372
3.598,-28.9978205363127
3.604,-29.0108722664319
3.61,-29.02245837016
3.616,-29.0326420902507
3.622,-29.0414873048615
3.628,-29.0490582937622
3.634,-29.0554195171081
3.64,-29.0606354075354
3.646,-29.0647701761259
3.652,-29.0678876325987
3.658,-29.0700510199028
3.664,-29.0713228632215
3.67,-29.0717648332548
3.676,-29.0714376235124
3.682,-29.0704008412417
3.688,-29.0687129115183
3.694,-29.0664309939487
3.7,-29.0636109113724
3.706,-29.0603070899054
3.712,-29.0565725096281
3.718,-29.0524586652062
3.724,-29.0480155357168
3.73,-29.043291562956
3.736,-29.0383336375106
3.742,-29.0331870918937
3.748,-29.0278957000645
3.754,-29.0225016826827
3.76,-29.0170457174774
3.766,-29.011566954147
3.772,-29.0061030332427
3.778,-29.0006901085302
3.784,-28.9953628723621
3.79,-28.9901545836374
3.796,-28.9850970979642
3.802,-28.9802208996846
3.808,-28.9755551354613
3.814,-28.9711276491632
3.82,-28.9669650178313
3.826,-28.9630925885383
3.832,-28.9595345159942
3.838,-28.9563138007853
3.844,-28.9534523281647
3.85,-28.9509709073439
3.856,-28.9488893112642
3.862,-28.9472263168523
3.868,-28.9459997457876
3.874,-28.9452265058322
3.88,-28.9449226327916
3.886,-28.9451033331901
3.892,-28.9457830277587
3.898,-28.9469753958429
3.904,-28.9486934208435
3.91,-28.9509494368105
3.916,-28.9537551763048
3.922,-28.9571218196463
3.928,-28.9610600456548
3.934,-28.9655800839867
3.94,-28.9706917691533
3.946,-28.9764045962969
3.952,-28.9827277787821
3.958,-28.9896703076417
3.964,-28.9972410128988
3.97,-29.0054486267667
3.976,-29.0143018487093
3.982,-29.0238094123271
3.988,-29.0339801540177
3.994,-29.0448230833497
4,-29.0563474550763
4.006,-29.0685628427155
4.012,-29.0814792136241
4.018,-29.0951070055023
4.024,-29.1094572042825
4.03,-29.1245414233824
4.036,-29.140371984334
4.042,-29.1569619988453
4.048,-29.1743254524044
4.054,-29.1924772895963
4.06,-29.2114335013776
4.066,-29.2312112146334
4.072,-29.2518287844334
4.078,-29.2733058895042
4.084,-29.2956636315412
4.09,-29.3189246391041
4.096,-29.3431131769599
4.102,-29.3682552618726
4.108,-29.3943787859774
4.114,-29.4215136490225
4.12,-29.449691900917
4.126,-29.4789478961827
4.132,-29.5093184620797
4.138,-29.540843082349
4.144,-29.5735640987054
4.15,-29.6075269324062
4.156,-29.6427803284271
4.162,-29.6793766249902
4.168,-29.7173720514125
4.174,-29.7568270574676
4.18,-29.7978066776922
4.186,-29.8403809342919
4.192,-29.8846252825244
4.198,-29.9306211026329
4.204,-29.978456242559
4.21,-30.028225615753
4.216,-30.0800318583883
4.222,-30.1339860501249
4.228,-30.1902085021876
4.234,-30.2488296158376
4.24,-30.3099908131999
4.246,-30.3738455406939
4.252,-30.4405603427886
4.258,-30.510316000157
4.264,-30.5833087211604
4.27,-30.6597513684173
4.276,-30.7398746923208
4.282,-30.8239285298629
4.288,-30.912182908812
4.294,-31.0049289726467
4.3,-31.1024796086971
4.306,-31.2051696181768
4.312,-31.3133552090697
4.318,-31.4274125173238
4.324,-31.5477347639494
4.33,-31.6747275303155
4.336,-31.8088014758888
4.342,-31.9503616273643
4.348,-32.0997921336091
4.354,-32.2574351109013
4.36,-32.4235619127107
4.366,-32.5983348831781
4.372,-32.7817574630875
4.378,-32.9736105351091
4.384,-33.1733733246978
4.39,-33.380128324188
4.396,-33.5924520114043
4.402,-33.8082971132697
4.408,-34.024878302081
4.414,-34.2385816302251
4.42,-34.4449278850715
4.426,-34.6386287960955
4.432,-34.813777633389
4.438,-34.9642051351905
4.444,-35.084001532671
4.45,-35.1681557074306
4.456,-35.2132057707618
4.462,-35.217757146939
4.468,-35.1827318703004
4.474,-35.1112754695133
4.48,-35.0083438663124
4.486,-34.8800791912606
4.492,-34.7331234328239
4.498,-34.5740038132301
4.504,-34.4086729720377
4.51,-34.2422294459399
4.516,-34.0788006354969
4.522,-33.921548400931
4.528,-33.7727531742086
4.534,-33.6339387148935
4.54,-33.5060098282774
4.546,-33.3893853947967
4.552,-33.2841170779691
4.558,-33.1899896874901
4.564,-33.106602684781
4.57,-33.0334342637623
4.576,-32.9698903343335
4.582,-32.9153409858522
4.588,-32.8691468987778
4.594,-32.8306778902705
4.6,-32.7993254360757
4.606,-32.7745106690075
4.612,-32.7556890448563
4.618,-32.7423526019133
4.624,-32.7340305223506
4.63,-32.7302885289553
4.636,-32.7307275134262
4.642,-32.7349816863105
4.648,-32.7427164577116
4.654,-32.7536261968783
4.66,-32.7674319732934
4.666,-32.7838793483132
4.672,-32.8027362619266
4.678,-32.82379104155
4.684,-32.8468505472355
4.69,-32.8717384589162
4.696,-32.8982937053366
4.702,-32.9263690303718
4.708,-32.9558296899517
4.714,-32.9865522713629
4.72,-33.0184236259899
4.726,-33.0513399063475
4.732,-33.0852056983892
4.738,-33.1199332404262
4.744,-33.1554417204779
4.75,-33.1916566444319
4.756,-33.2285092679844
4.762,-33.2659360859228
4.768,-33.3038783728949
4.774,-33.3422817703551
4.78,-33.3810959148976
4.786,-33.4202741036647
4.792,-33.4597729929543
4.798,-33.4995523265552
4.804,-33.5395746906971
4.81,-33.5798052928332
4.816,-33.6202117617667
4.822,-33.6607639668957
4.828,-33.7014338545902
4.834,-33.7421952999251
4.84,-33.7830239721827
4.846,-33.8238972127068
4.852,-33.8647939238421
4.858,-33.9056944678249
4.864,-33.9465805746135
4.87,-33.9874352577504
4.876,-34.0282427374458
4.882,-34.0689883701562
4.888,-34.1096585840068
4.894,-34.1502408194745
4.9,-34.1907234748099
4.906,-34.2310958557277
4.912,-34.2713481289466
4.918,-34.3114712791989
4.924,-34.3514570693743
4.93,-34.3912980034895
4.936,-34.4309872922138
4.942,-34.4705188207034
4.948,-34.5098871185242
4.954,-34.5490873314651
4.96,-34.5881151950641
4.966,-34.6269670096878
4.972,-34.6656396170196
4.978,-34.704130377829
4.984,-34.7424371509065
4.99,-34.78055827306
4.996,-34.8184925400797
5.002,-34.8562391885897
5.008,-34.89379787871
5.014,-34.931168677464
5.02,-34.9683520428712
5.026,-35.0053488086723
5.032,-35.0421601696391
5.038,-35.0787876674277
5.044,-35.1152331769376
5.05,-35.1514988931421
5.056,-35.1875873183621
5.062,-35.2235012499572
5.068,-35.2592437684087
5.074,-35.2948182257779
5.08,-35.3302282345176
5.086,-35.3654776566248
5.092,-35.4005705931172
5.098,-35.4355113738241
5.104,-35.4703045474793
5.11,-35.5049548721065
5.116,-35.5394673056905
5.122,-35.5738469971244
5.128,-35.6080992774289
5.134,-35.6422296512361
5.14,-35.6762437885335
5.146,-35.7101475166642
5.152,-35.7439468125778
5.158,-35.77764779533
5.164,-35.8112567188261
5.17,-35.844779964806
5.176,-35.8782240360674
5.182,-35.9115955499251
5.188,-35.9449012319018
5.194,-35.9781479096507
5.2,-36.0113425071041
5.206,-36.0444920388472
5.212,-36.0776036047146
5.218,-36.1106843846052
5.224,-36.1437416335144
5.23,-36.1767826767796
5.236,-36.2098149055369
5.242,-36.2428457723847
5.248,-36.2758827872532
5.254,-36.3089335134736
5.26,-36.3420055640467
5.266,-36.3751065981053
5.272,-36.4082443175674
5.278,-36.4414264639772
5.284,-36.4746608155295
5.29,-36.5079551842731
5.296,-36.5413174134906
5.302,-36.5747553752496
5.308,-36.6082769681212
5.314,-36.6418901150614
5.32,-36.6756027614524
5.326,-36.7094228732972
5.332,-36.7433584355651
5.338,-36.7774174506825
5.344,-36.8116079371645
5.35,-36.845937928383
5.356,-36.8804154714663
5.362,-36.9150486263257
5.368,-36.9498454648044
5.374,-36.9848140699429
5.38,-37.0199625353579
5.386,-37.0552989647276
5.392,-37.09083147138
5.398,-37.1265681779787
5.404,-37.162517216301
5.41,-37.1986867271028
5.416,-37.2350848600665
5.422,-37.2717197738248
5.428,-37.3085996360566
5.434,-37.345732623649
5.44,-37.3831269229196
5.446,-37.4207907298945
5.452,-37.4587322506353
5.458,-37.4969597016104
5.464,-37.5354813101033
5.47,-37.574305314654
5.476,-37.6134399655246
5.482,-37.6528935251855
5.488,-37.6926742688137
5.494,-37.7327904847974
5.5,-37.7732504752398
5.506,-37.793795406268
5.512,-37.8139291445126
5.518,-37.833622689776
5.524,-37.8528454346113
5.53,-37.8715651684265
5.536,-37.889748098023
5.542,-37.9073588868852
5.548,-37.9243607155897
5.554,-37.9407153657178
5.56,-37.9563833296091
5.566,-37.9713239481743
5.572,-37.9854955787865
5.578,-37.9988557949801
5.584,-38.0113616192836
5.59,-38.0229697900126
5.596,-38.0336370622163
5.602,-38.0433205422394
5.608,-38.0519780544986
5.614,-38.0595685381252
5.62,-38.0660524700793
5.626,-38.0713923102478
5.632,-38.0755529629088
5.638,-38.0785022478349
5.644,-38.0802113732568
5.65,-38.0806554019691
5.656,-38.0798137010897
5.662,-38.0776703654314
5.668,-38.0742146041704
5.674,-38.069441080535
5.68,-38.0633501946257
5.686,-38.055948300245
5.692,-38.0472478477396
5.698,-38.0372674463518
5.704,-38.0260318413717
5.71,-38.0135718034521
5.716,-37.999923929691
5.722,-37.9851303584329
5.728,-37.9692384020827
5.734,-37.9523001044737
5.74,-37.9343717313707
5.746,-37.9155132044527
5.752,-37.8957874905167
5.758,-37.8752599586264
5.764,-37.8539977184705
5.77,-37.8320689532712
5.776,-37.8095422602297
5.782,-37.7864860107217
5.788,-37.762967741347
5.794,-37.7390535855275
5.8,-37.7148077537385
5.806,-37.6902920687176
5.812,-37.6655655601989
5.818,-37.6406841219529
5.824,-37.6157002322181
5.83,-37.5906627370682
5.836,-37.5656166948826
5.842,-37.5406032789249
5.848,-37.5156597340867
5.854,-37.4908193831371
5.86,-37.4661116773133
5.866,-37.441562285789
5.872,-37.4171932184474
5.878,-37.3930229764283
5.884,-37.3690667251051
5.89,-37.3453364844329
5.896,-37.3218413319871
5.902,-37.2985876144406
5.908,-37.2755791636971
5.914,-37.252817514387
5.92,-37.2303021199217
5.926,-37.208030564786
5.932,-37.1859987712102
5.938,-37.164201198804
5.944,-37.1426310361447
5.95,-37.1212803836944
5.956,-37.1001404277749
5.962,-37.0792016056567
5.968,-37.058453762128
5.974,-37.0378862982005
5.98,-37.0174883129061
5.986,-36.9972487394201
5.992,-36.9771564770747
5.998,-36.9572005211634
6.004,-36.9373700928437
6.01,-36.917654771933
6.016,-36.8980446359805
6.022,-36.8785304097654
6.028,-36.8591036303243
6.034,-36.8397568338824
6.04,-36.8204837727022
6.046,-36.8012796720512
6.052,-36.7821415404
6.058,-36.7630685498674
