"Freq [GHz]","dB(St(1,5)) []"
1,-35.6112922647449
1.006,-33.3304105692454
1.012,-30.3475619803858
1.018,-27.5300733527457
1.024,-25.6204371738028
1.03,-24.6732267095831
1.036,-24.3130236991068
1.042,-24.2118339888112
1.048,-24.2034420404567
1.054,-24.2200568099918
1.06,-24.2369091295091
1.066,-24.2460603326158
1.072,-24.2458078377515
1.078,-24.236587515748
1.084,-24.2194226535995
1.09,-24.1953616295213
1.096,-24.1652987935815
1.102,-24.1299415463104
1.108,-24.0898303542784
1.114,-24.0453754698288
1.12,-23.9968970605325
1.126,-23.9446647086282
1.132,-23.8889359075953
1.138,-23.8299945377727
1.144,-23.7681906789784
1.15,-23.7039830404102
1.156,-23.6379849302949
1.162,-23.5710140602093
1.168,-23.5041455107692
1.174,-23.4387657698426
1.18,-23.3766237942117
1.186,-23.3198725200683
1.192,-23.2710913175683
1.198,-23.2332770318136
1.204,-23.2097894170248
1.21,-23.2042373842126
1.216,-23.22029723471
1.222,-23.26146421925
1.228,-23.3307541120813
1.234,-23.4303891798315
1.24,-23.5615173037752
1.246,-23.7240172381835
1.252,-23.916432400491
1.258,-24.1360511307032
1.264,-24.3791203664883
1.27,-24.6411528018861
1.276,-24.9172734722524
1.282,-25.2025530016343
1.288,-25.49228793565
1.294,-25.7822069194418
1.3,-26.0685986470412
1.306,-26.3483697879669
1.312,-26.6190476018368
1.318,-26.8787436670959
1.324,-27.1260937671253
1.33,-27.360186085681
1.336,-27.5804866014184
1.342,-27.7867675924229
1.348,-27.9790427503871
1.354,-28.1575106141123
1.36,-28.3225067990863
1.366,-28.474464714834
1.372,-28.6138840109262
1.378,-28.7413057765011
1.384,-28.8572934576507
1.39,-28.9624184927543
1.396,-29.0572497555779
1.402,-29.1423460110311
1.408,-29.2182507102987
1.414,-29.2854885694055
1.42,-29.3445634818965
1.426,-29.3959574093951
1.432,-29.440129972621
1.438,-29.4775185305948
1.444,-29.5085385884821
1.45,-29.5335844164368
1.456,-29.5530297945208
1.462,-29.5672288238996
1.468,-29.576516763462
1.474,-29.5812108650372
1.48,-29.5816111905488
1.486,-29.5780014016265
1.492,-29.5706495171227
1.498,-29.5598086372165
1.504,-29.5457176347994
1.51,-29.5286018159688
1.516,-29.5086735519875
1.522,-29.4861328851935
1.528,-29.4611681112267
1.534,-29.4339563396718
1.54,-29.4046640348862
1.546,-29.3734475384383
1.552,-29.340453574247
1.558,-29.3058197372227
1.564,-29.2696749659621
1.57,-29.2321399998466
1.576,-29.1933278207452
1.582,-29.1533440794126
1.588,-29.1122875066012
1.594,-29.0702503088693
1.6,-29.0273185490516
1.606,-28.983572511369
1.612,-28.9390870511724
1.618,-28.8939319293537
1.624,-28.848172131491
1.63,-28.8018681718449
1.636,-28.7550763823645
1.642,-28.7078491869073
1.648,-28.6602353609236
1.654,-28.6122802768926
1.66,-28.5640261358392
1.666,-28.5155121852933
1.672,-28.4667749240826
1.678,-28.4178482943786
1.684,-28.3687638614376
1.69,-28.3195509814977
1.696,-28.2702369583092
1.702,-28.2208471887882
1.708,-28.1714052982922
1.714,-28.1219332660251
1.72,-28.0724515410797
1.726,-28.022979149631
1.732,-27.973533793788
1.738,-27.9241319426121
1.744,-27.874788915802
1.75,-27.8255189605363
1.756,-27.7763353219587
1.762,-27.7272503077723
1.768,-27.6782753474037
1.774,-27.6294210461736
1.78,-27.5806972349013
1.786,-27.5321130153466
1.792,-27.4836768018761
1.798,-27.4353963597196
1.804,-27.3872788401607
1.81,-27.3393308129857
1.816,-27.2915582964906
1.822,-27.2439667853252
1.828,-27.1965612764317
1.834,-27.149346293312
1.84,-27.102325908838
1.846,-27.055503766798
1.852,-27.0088831023523
1.858,-26.9624667615523
1.864,-26.9162572200601
1.87,-26.8702566011873
1.876,-26.8244666933585
1.882,-26.7788889670874
1.888,-26.7335245915428
1.894,-26.6883744507688
1.9,-26.6434391596119
1.906,-26.5987190793998
1.912,-26.5542143334046
1.918,-26.5099248221211
1.924,-26.4658502383767
1.93,-26.4219900822913
1.936,-26.3783436760939
1.942,-26.334910178802
1.948,-26.2916886007656
1.954,-26.2486778180722
1.96,-26.2058765868093
1.966,-26.1632835571752
1.972,-26.1208972874295
1.978,-26.0787162576714
1.984,-26.0367388834317
1.99,-25.9949635290636
1.996,-25.9533885209161
2.002,-25.9120121602727
2.008,-25.8708327360348
2.014,-25.8298485371327
2.02,-25.7890578646404
2.026,-25.7484590435761
2.032,-25.7080504343642
2.038,-25.6678304439377
2.044,-25.6277975364597
2.05,-25.5879502436404
2.056,-25.5482871746305
2.062,-25.5088070254684
2.068,-25.4695085880638
2.074,-25.4303907586982
2.08,-25.3914525460276
2.086,-25.3526930785727
2.092,-25.3141116116847
2.098,-25.2757075339801
2.104,-25.2374803732357
2.11,-25.1994298017442
2.116,-25.1615556411295
2.122,-25.1238578666282
2.128,-25.0863366108434
2.134,-25.0489921669857
2.14,-25.0118249916143
2.146,-24.9748357069007
2.152,-24.9380251024363
2.158,-24.9013941366099
2.164,-24.8649439375869
2.17,-24.8286758039196
2.176,-24.7925912048255
2.182,-24.7566917801692
2.188,-24.7209793401866
2.194,-24.685455864991
2.2,-24.6501235039012
2.206,-24.6149845746332
2.212,-24.5800415623944
2.218,-24.5452971189226
2.224,-24.5107540615072
2.23,-24.4764153720311
2.236,-24.4422841960704
2.242,-24.4083638420848
2.248,-24.3746577807323
2.254,-24.3411696443373
2.26,-24.3079032265397
2.266,-24.2748624821501
2.272,-24.2420515272318
2.278,-24.2094746394303
2.284,-24.1771362585659
2.29,-24.1450409875026
2.296,-24.1131935933058
2.302,-24.0815990086954
2.308,-24.0502623338015
2.314,-24.019188838226
2.32,-23.988383963411
2.326,-23.9578533253151
2.332,-23.9276027173922
2.338,-23.8976381138724
2.344,-23.867965673336
2.35,-23.8385917425761
2.356,-23.8095228607404
2.362,-23.7807657637425
2.368,-23.7523273889345
2.374,-23.7242148800278
2.38,-23.6964355922513
2.386,-23.6689970977352
2.392,-23.641907191107
2.398,-23.6151738952858
2.404,-23.5888054674633
2.41,-23.5628104052546
2.416,-23.5371974530067
2.422,-23.5119756082488
2.428,-23.4871541282689
2.434,-23.4627425368018
2.44,-23.4387506308117
2.446,-23.4151884873543
2.452,-23.3920664704985
2.458,-23.3693952382937
2.464,-23.347185749761
2.47,-23.3254492718916
2.476,-23.3041973866308
2.482,-23.2834419978287
2.488,-23.263195338133
2.494,-23.2434699758046
2.5,-23.2242788214285
2.506,-23.205635134497
2.512,-23.1875525298375
2.518,-23.1700449838568
2.524,-23.1531268405726
2.53,-23.1368128174006
2.536,-23.1211180106638
2.542,-23.1060579007901
2.548,-23.0916483571605
2.554,-23.0779056425701
2.56,-23.0648464172612
2.566,-23.052487742485
2.572,-23.0408470835488
2.578,-23.0299423123012
2.584,-23.0197917090063
2.59,-23.0104139635574
2.596,-23.0018281759759
2.602,-22.9940538561422
2.608,-22.9871109227012
2.614,-22.9810197010848
2.62,-22.9758009205903
2.626,-22.9714757104556
2.632,-22.968065594866
2.638,-22.9655924868309
2.644,-22.9640786808643
2.65,-22.9635468444051
2.656,-22.9640200079114
2.662,-22.9655215535629
2.668,-22.9680752025079
2.674,-22.9717050005887
2.68,-22.9764353024848
2.686,-22.9822907542121
2.692,-22.9892962739179
2.698,-22.9974770309183
2.704,-23.0068584229228
2.71,-23.0174660513995
2.716,-23.0293256950339
2.722,-23.0424632812453
2.728,-23.0569048557237
2.734,-23.072676549963
2.74,-23.089804546768
2.746,-23.1083150437227
2.752,-23.1282342146157
2.758,-23.1495881688255
2.764,-23.1724029086785
2.77,-23.1967042848023
2.776,-23.222517949505
2.782,-23.249869308225
2.788,-23.2787834691006
2.794,-23.3092851907255
2.8,-23.3413988281609
2.806,-23.37514827729
2.812,-23.4105569176085
2.818,-23.4476475535534
2.824,-23.4864423544866
2.83,-23.5269627934512
2.836,-23.5692295848345
2.842,-23.6132626210721
2.848,-23.6590809085372
2.854,-23.7067025027642
2.86,-23.756144443157
2.866,-23.8074226873378
2.872,-23.8605520452901
2.878,-23.9155461134515
2.884,-23.9724172089079
2.89,-24.0311763038375
2.896,-24.0918329603466
2.902,-24.1543952658336
2.908,-24.2188697690074
2.914,-24.2852614166758
2.92,-24.3535734914094
2.926,-24.4238075501722
2.932,-24.4959633639957
2.938,-24.570038858761
2.944,-24.6460300571336
2.95,-24.7239310216831
2.956,-24.803733799204
2.962,-24.8854283662349
2.968,-24.969002575762
2.974,-25.0544421050783
2.98,-25.1417304047538
2.986,-25.230848648667
2.992,-25.321775685035
2.998,-25.4144879883759
3.004,-25.5089596123351
3.01,-25.6051621433077
3.016,-25.7030646547942
3.022,-25.8026336624383
3.028,-25.9038330797087
3.034,-26.0066241742088
3.04,-26.1109655246233
3.046,-26.2168129783442
3.052,-26.3241196098553
3.058,-26.4328356800041
3.064,-26.5429085963374
3.07,-26.6542828747405
3.076,-26.766900102685
3.082,-26.8806989044636
3.088,-26.9956149088716
3.094,-27.1115807198812
3.1,-27.2285258909486
3.106,-27.3463769036906
3.112,-27.4650571517705
3.118,-27.5844869309402
3.124,-27.7045834362899
3.13,-27.8252607678651
3.136,-27.9464299459167
3.142,-28.0679989371482
3.148,-28.1898726934177
3.154,-28.3119532044337
3.16,-28.4341395660523
3.166,-28.5563280658323
3.172,-28.6784122875326
3.178,-28.8002832362356
3.184,-28.9218294857524
3.19,-29.0429373498947
3.196,-29.1634910790961
3.202,-29.2833730837113
3.208,-29.4024641851209
3.214,-29.5206438955222
3.22,-29.6377907269781
3.226,-29.7537825299395
3.232,-29.8684968610443
3.238,-29.9818113795335
3.244,-30.0936042711135
3.25,-30.2037546975467
3.256,-30.2997308723362
3.262,-30.3926940253358
3.268,-30.4824520152434
3.274,-30.5688197187203
3.28,-30.6516206520878
3.286,-30.7306885882639
3.292,-30.8058691401631
3.298,-30.8770212802972
3.304,-30.9440187657152
3.31,-31.0067514378281
3.316,-31.0651263681346
3.322,-31.1190688234217
3.328,-31.1685230276053
3.334,-31.213452701902
3.34,-31.2538413703163
3.346,-31.2896924232779
3.352,-31.321028938428
3.358,-31.3478932637554
3.364,-31.3703463742609
3.37,-31.3884670188172
3.376,-31.4023506786762
3.382,-31.4121083629686
3.388,-31.4178652694271
3.394,-31.4197593403709
3.4,-31.4179397447216
3.406,-31.4125653165207
3.412,-31.4038029791916
3.418,-31.3918261827659
3.424,-31.3768133786361
3.43,-31.3589465532727
3.436,-31.3384098389307
3.442,-31.3153882158228
3.448,-31.2900663167104
3.454,-31.262627341475
3.46,-31.2332520860785
3.466,-31.2021180874889
3.472,-31.1693988836584
3.478,-31.1352633855518
3.484,-31.099875356506
3.49,-31.0633929928729
3.496,-31.0259685989152
3.502,-30.987748348265
3.508,-30.9488721238789
3.514,-30.9094734282867
3.52,-30.8696793559989
3.526,-30.8296106201646
3.532,-30.7893816259276
3.538,-30.7491005833719
3.544,-30.708869653458
3.55,-30.6687851208996
3.556,-30.6289375884929
3.562,-30.589412187979
3.568,-30.5502888030707
3.574,-30.5116423008092
3.58,-30.4735427679131
3.586,-30.4360557492549
3.592,-30.3992424860252
3.598,-30.363160151539
3.604,-30.3278620829912
3.61,-30.2933980077824
3.616,-30.2598142633169
3.622,-30.2271540094179
3.628,-30.195457432721
3.634,-30.1647619425887
3.64,-30.1351023582487
3.646,-30.1065110869925
3.652,-30.0790182933817
3.658,-30.0526520595062
3.664,-30.0274385364141
3.67,-30.0034020868951
3.676,-29.9805654198504
3.682,-29.9589497165218
3.688,-29.93857474888
3.694,-29.9194589904962
3.7,-29.9016197202359
3.706,-29.8850731191214
3.712,-29.8698343607176
3.718,-29.8559176953933
3.724,-29.8433365288111
3.73,-29.8321034949917
3.736,-29.8222305242946
3.742,-29.8137289066472
3.748,-29.806609350346
3.754,-29.8008820367438
3.76,-29.7965566711263
3.766,-29.793642530071
3.772,-29.7921485055705
3.778,-29.7920831461909
3.784,-29.793454695528
3.79,-29.7962711282098
3.796,-29.8005401836888
3.802,-29.8062693980539
3.808,-29.8134661340863
3.814,-29.8221376097733
3.82,-29.8322909254873
3.826,-29.8439330900302
3.832,-29.8570710457372
3.838,-29.8717116928263
3.844,-29.8878619131787
3.85,-29.9055285937272
3.856,-29.9247186496267
3.862,-29.9454390473814
3.868,-29.967696828096
3.874,-29.9914991310212
3.88,-30.0168532175615
3.886,-30.043766495913
3.892,-30.0722465465039
3.898,-30.1023011484073
3.904,-30.1339383069051
3.91,-30.1671662823826
3.916,-30.2019936207413
3.922,-30.238429185524
3.928,-30.2764821919554
3.934,-30.3161622431119
3.94,-30.3574793684467
3.946,-30.4004440649104
3.952,-30.4450673409243
3.958,-30.4913607634813
3.964,-30.5393365086733
3.97,-30.5890074159665
3.976,-30.6403870465757
3.982,-30.6934897463199
3.988,-30.7483307133789
3.994,-30.8049260714103
4,-30.8632929485347
4.006,-30.9234495627487
4.012,-30.985415314386
4.018,-31.0492108863139
4.024,-31.1148583526306
4.03,-31.1823812967155
4.036,-31.2518049395835
4.042,-31.3231562796072
4.048,-31.3964642447995
4.054,-31.4717598589931
4.06,-31.5490764234217
4.066,-31.628449715394
4.072,-31.7099182059716
4.078,-31.7935232988071
4.084,-31.8793095925821
4.09,-31.9673251698131
4.096,-32.0576219151655
4.102,-32.1502558668491
4.108,-32.2452876051651
4.114,-32.3427826828525
4.12,-32.4428121025482
4.126,-32.54545284745
4.132,-32.6507884721764
4.138,-32.7589097618655
4.144,-32.8699154687905
4.15,-32.9839131372073
4.156,-33.1010200288488
4.162,-33.2213641634735
4.168,-33.3450854912386
4.174,-33.4723372164609
4.18,-33.6032872956526
4.186,-33.7381201366774
4.192,-33.8770385306103
4.198,-34.0202658535682
4.204,-34.1680485826222
4.21,-34.3206591781835
4.216,-34.478399395296
4.222,-34.6416040985162
4.228,-34.8106456700554
4.234,-34.9859391192997
4.24,-35.1679480246323
4.246,-35.3571914668292
4.252,-35.5542521487482
4.258,-35.759785940621
4.264,-35.9745331467398
4.27,-36.1993318613646
4.276,-36.4351338742779
4.282,-36.6830237064257
4.288,-36.9442415130142
4.294,-37.2202107985996
4.3,-37.5125721649765
4.306,-37.8232246850836
4.312,-38.1543770038433
4.318,-38.5086109671374
4.324,-38.8889615575383
4.33,-39.299018295564
4.336,-39.7430552348904
4.342,-40.2261995149041
4.348,-40.7546525309974
4.354,-41.3359836756079
4.36,-41.979524879315
4.366,-42.6969050194728
4.372,-43.5027746124554
4.378,-44.4157722465359
4.384,-45.4597320697088
4.39,-46.6648662272765
4.396,-48.0675763383894
4.402,-49.7033507840504
4.408,-51.5713574186314
4.414,-53.5002033269573
4.42,-54.8336560738231
4.426,-54.6036414937836
4.432,-53.0021395108289
4.438,-51.0324795339052
4.444,-49.2064247212088
4.45,-47.634502539788
4.456,-46.3048310393335
4.462,-45.1823887823298
4.468,-44.2336339112435
4.474,-43.4308937117232
4.48,-42.7519980707119
4.486,-42.1791001202066
4.492,-41.6976090180897
4.498,-41.2953871570566
4.504,-40.962180090816
4.51,-40.6892177246339
4.516,-40.4689332210147
4.522,-40.294760193524
4.528,-40.160981177227
4.534,-40.0626096604738
4.54,-39.9952944387256
4.546,-39.9552393523343
4.552,-39.9391342121346
4.558,-39.9440943948206
4.564,-39.967607573559
4.57,-40.0074865990321
4.576,-40.0618278380309
4.582,-40.1289744241524
4.588,-40.2074839475409
4.594,-40.2961001482159
4.6,-40.3937282020768
4.606,-40.4994132107068
4.612,-40.6123215298924
4.618,-40.7317245982332
4.624,-40.8569849558039
4.63,-40.9875441724182
4.636,-41.1229124345295
4.642,-41.2626595682539
4.648,-41.4064073027524
4.654,-41.5538226028478
4.66,-41.7046119220793
4.666,-41.8585162473527
4.672,-42.0153068240023
4.678,-42.1747814655653
4.684,-42.3367613660659
4.69,-42.5010883442922
4.696,-42.6676224596415
4.702,-42.8362399477829
4.708,-43.0068314318258
4.714,-43.1793003710575
4.72,-43.3535617147556
4.726,-43.5295407332391
4.732,-43.7071720022885
4.738,-43.8863985204642
4.744,-44.0671709417401
4.75,-44.2494469083479
4.756,-44.4331904708378
4.762,-44.6183715841679
4.768,-44.8049656701818
4.774,-44.9929532381591
4.78,-45.1823195562563
4.786,-45.3730543676355
4.792,-45.5651516459108
4.798,-45.7586093852681
4.804,-45.9534294212312
4.81,-46.1496172785827
4.816,-46.3471820434096
4.822,-46.5461362566416
4.828,-46.7464958267869
4.834,-46.9482799598724
4.84,-47.1515111048375
4.846,-47.3562149128519
4.852,-47.5624202092043
4.858,-47.7701589765579
4.864,-47.9794663484933
4.87,-48.1903806123493
4.876,-48.4029432204423
4.882,-48.6171988087872
4.888,-48.8331952224524
4.894,-49.0509835466745
4.9,-49.2706181428056
4.906,-49.4921566880912
4.912,-49.7156602181546
4.918,-49.9411931708986
4.924,-50.1688234303193
4.93,-50.3986223684444
4.936,-50.6306648832527
4.942,-50.8650294299854
4.948,-51.1017980427073
4.954,-51.3410563422887
4.96,-51.5828935261342
4.966,-51.8274023339481
4.972,-52.0746789825464
4.978,-52.3248230611658
4.984,-52.5779373768004
4.99,-52.8341277367502
4.996,-53.0935026526893
5.002,-53.3561729470416
5.008,-53.6222512381456
5.014,-53.8918512754198
5.02,-54.1650870893048
5.026,-54.4420719129003
5.032,-54.7229168226416
5.038,-55.007729033727
5.044,-55.2966097719045
5.05,-55.5896516262293
5.056,-55.8869352670073
5.062,-56.1885253888958
5.068,-56.494465710597
5.074,-56.804772829511
5.08,-57.1194286921888
5.086,-57.4383714000999
5.092,-57.7614840268391
5.098,-58.0885810807592
5.104,-58.4193922120811
5.11,-58.7535427455455
5.116,-59.0905306339901
5.122,-59.4296994978616
5.128,-59.7702075737379
5.134,-60.1109926865718
5.14,-60.4507338434011
5.146,-60.7878107876971
5.152,-61.1202639187811
5.158,-61.4457584100567
5.164,-61.7615581260413
5.17,-62.064516883511
5.176,-62.3510963599399
5.182,-62.6174208829515
5.188,-62.8593785311776
5.194,-63.072774431063
5.2,-63.2535351323701
5.206,-63.3979526775424
5.212,-63.5029451319731
5.218,-63.5663002182893
5.224,-63.5868644159538
5.23,-63.5646446163215
5.236,-63.500803426557
5.242,-63.3975490105966
5.248,-63.2579398713627
5.254,-63.0856382735484
5.26,-62.8846499023854
5.266,-62.6590824206383
5.272,-62.4129451553517
5.278,-62.1500003242208
5.284,-61.873666181292
5.29,-61.5869657653524
5.296,-61.2925116587905
5.302,-60.9925165495928
5.308,-60.6888204225957
5.314,-60.3829270008525
5.32,-60.0760439987582
5.326,-59.7691234897457
5.332,-59.4629000891982
5.338,-59.1579256885506
5.344,-58.8546001930869
5.35,-58.5531981799686
5.356,-58.2538916710506
5.362,-57.9567693638483
5.368,-57.6618527276617
5.374,-57.3691093825324
5.38,-57.0784641586414
5.386,-56.7898081977721
5.392,-56.5030064159125
5.398,-56.2179036026358
5.404,-55.9343293917446
5.41,-55.6521023003937
5.416,-55.3710330011322
5.422,-55.0909269630664
5.428,-54.8115865743628
5.434,-54.5328128381671
5.44,-54.2544067172232
5.446,-53.9761701885699
5.452,-53.6979070582185
5.458,-53.4194235762941
5.464,-53.1405288853953
5.47,-52.8610353286213
5.476,-52.580758638546
5.482,-52.2995180242361
5.488,-52.0171361699713
5.494,-51.7334391565487
5.5,-51.4482563137824
5.506,-51.2639424385186
5.512,-51.0822802632821
5.518,-50.9032332133891
5.524,-50.7267691362708
5.53,-50.5528600016382
5.536,-50.3814816032438
5.542,-50.2126132610175
5.548,-50.0462375225649
5.554,-49.8823398632447
5.56,-49.7209083842728
5.566,-49.5619335085459
5.572,-49.4054076741256
5.578,-49.2513250255759
5.584,-49.0996811036125
5.59,-48.9504725337684
5.596,-48.8036967150428
5.602,-48.6593515097399
5.608,-48.5174349359381
5.614,-48.3779448642427
5.62,-48.2408787206702
5.626,-48.1062331976674
5.632,-47.9740039754081
5.638,-47.8441854555924
5.644,-47.7167705100283
5.65,-47.5917502462763
5.656,-47.4691137925934
5.662,-47.3488481043172
5.668,-47.230937793689
5.674,-47.1153649849179
5.68,-47.0021091960527
5.686,-46.8911472489432
5.692,-46.7824532082589
5.698,-46.6759983501812
5.704,-46.571751161016
5.71,-46.4696773655882
5.716,-46.3697399848891
5.722,-46.2718994220576
5.728,-46.1761135754065
5.734,-46.0823379768448
5.74,-45.9905259537285
5.746,-45.9006288118816
5.752,-45.8125960372804
5.758,-45.7263755137022
5.764,-45.641913753482
5.77,-45.5591561384315
5.776,-45.4780471679238
5.782,-45.3985307111576
5.788,-45.3205502606687
5.794,-45.2440491842563
5.8,-45.1689709726337
5.806,-45.0952594802913
5.812,-45.0228591572656
5.818,-44.9517152697401
5.824,-44.8817741076515
5.83,-44.8129831777408
5.836,-44.7452913807496
5.842,-44.6786491717344
5.848,-44.6130087027355
5.854,-44.5483239472896
5.86,-44.4845508065221
5.866,-44.4216471967789
5.872,-44.3595731189721
5.878,-44.2982907100007
5.884,-44.2377642767811
5.89,-44.1779603135677
5.896,-44.1188475033754
5.902,-44.0603967044187
5.908,-44.002580922571
5.914,-43.9453752709138
5.92,-43.8887569174928
5.926,-43.8327050224322
5.932,-43.7772006655722
5.938,-43.7222267657976
5.944,-43.6677679932173
5.95,-43.6138106753289
5.956,-43.5603426982789
5.962,-43.5073534042816
5.968,-43.4548334862235
5.974,-43.4027748804224
5.98,-43.3511706584597
5.986,-43.300014918942
5.992,-43.2493026799916
5.998,-43.1990297731975
6.004,-43.1491927397015
6.01,-43.0997887290233
6.016,-43.05081540117
6.022,-43.0022708325112
6.028,-42.9541534258379
6.034,-42.9064618249655
6.04,-42.8591948341809
6.046,-42.8123513427797
6.052,-42.7659302548828
