"Freq [GHz]","dB(St(1,8)) []"
1,-17.0481296326054
1.006,-16.2315435058507
1.012,-15.5801578829332
1.018,-15.4325838400518
1.024,-16.0377535492137
1.03,-17.21785319634
1.036,-18.5460024107393
1.042,-19.7191073285442
1.048,-20.6287163544788
1.054,-21.2806551367909
1.06,-21.7240689274554
1.066,-22.0139578405281
1.072,-22.1964913526302
1.078,-22.3059175969584
1.084,-22.3660198118213
1.09,-22.3926540645094
1.096,-22.3960484609349
1.102,-22.3825394948435
1.108,-22.3557837003432
1.114,-22.3175721410549
1.12,-22.2683700905127
1.126,-22.2076765499909
1.132,-22.1342718760835
1.138,-22.0464021992962
1.144,-21.941935942196
1.15,-21.8185185090402
1.156,-21.6737439360613
1.162,-21.5053550978571
1.168,-21.3114756385539
1.174,-21.0908666406566
1.18,-20.84318979035
1.186,-20.5692482974112
1.192,-20.271169784475
1.198,-19.9524944277753
1.204,-19.6181382936562
1.21,-19.2742156609425
1.216,-18.927722976679
1.222,-18.5861078678448
1.228,-18.2567661124213
1.234,-17.9465244784407
1.24,-17.6611744621415
1.246,-17.4051179128696
1.252,-17.181168775072
1.258,-16.9905279636311
1.264,-16.8329173577503
1.27,-16.7068328876422
1.276,-16.6098627527104
1.282,-16.5390170909922
1.288,-16.4910268669195
1.294,-16.4625864529416
1.3,-16.4505306319582
1.306,-16.4519489693864
1.312,-16.4642476132927
1.318,-16.485171249802
1.324,-16.5127975909754
1.33,-16.5455148265509
1.336,-16.5819899929334
1.342,-16.6211338416014
1.348,-16.6620658222122
1.354,-16.7040813104885
1.36,-16.7466221683937
1.366,-16.7892510387519
1.372,-16.8316293562667
1.378,-16.8734988214246
1.384,-16.9146659701592
1.39,-16.9549894346334
1.396,-16.9943694975353
1.402,-17.0327395730767
1.408,-17.0700592893649
1.414,-17.106308891112
1.42,-17.1414847243651
1.426,-17.1755956038356
1.432,-17.2086598975746
1.438,-17.2407031930465
1.444,-17.2717564333602
1.45,-17.3018544329977
1.456,-17.3310346993786
1.462,-17.3593365005387
1.468,-17.3868001305874
1.474,-17.4134663338705
1.48,-17.4393758562857
1.486,-17.4645690982902
1.492,-17.4890858490744
1.498,-17.5129650853628
1.504,-17.5362448215332
1.51,-17.5589620003511
1.516,-17.5811524157288
1.522,-17.602850660623
1.528,-17.6240900945647
1.534,-17.6449028264324
1.54,-17.6653197089806
1.546,-17.6853703423647
1.552,-17.7050830844926
1.558,-17.7244850665074
1.564,-17.7436022120848
1.57,-17.7624592595394
1.576,-17.7810797859711
1.582,-17.7994862328819
1.588,-17.8176999328411
1.594,-17.8357411368985
1.6,-17.8536290425318
1.606,-17.8713818219867
1.612,-17.8890166509158
1.618,-17.9065497372562
1.624,-17.9239963503131
1.63,-17.9413708500258
1.636,-17.9586867164039
1.642,-17.9759565791173
1.648,-17.9931922472253
1.654,-18.0104047390212
1.66,-18.0276043119606
1.666,-18.0448004926346
1.672,-18.0620021067365
1.678,-18.079217308964
1.684,-18.0964536127883
1.69,-18.1137179200141
1.696,-18.1310165500472
1.702,-18.148355268782
1.708,-18.1657393170166
1.714,-18.1831734383003
1.72,-18.2006619061191
1.726,-18.2182085503234
1.732,-18.2358167827066
1.738,-18.2534896216454
1.744,-18.2712297157197
1.75,-18.2890393662343
1.756,-18.3069205485757
1.762,-18.3248749323436
1.768,-18.3429039002097
1.774,-18.3610085654666
1.78,-18.3791897882424
1.786,-18.3974481903702
1.792,-18.4157841689171
1.798,-18.4341979083895
1.804,-18.4526893916494
1.81,-18.4712584095905
1.816,-18.4899045696377
1.822,-18.5086273031497
1.828,-18.5274258718176
1.834,-18.5462993731648
1.84,-18.5652467452653
1.846,-18.5842667708067
1.852,-18.603358080631
1.858,-18.6225191568888
1.864,-18.6417483359454
1.87,-18.661043811174
1.876,-18.680403635763
1.882,-18.6998257256591
1.888,-18.7193078627494
1.894,-18.738847698375
1.9,-18.7584427572454
1.906,-18.7780904418038
1.912,-18.7977880370716
1.918,-18.8175327159749
1.924,-18.8373215451352
1.93,-18.857151491082
1.936,-18.8770194268278
1.942,-18.8969221387236
1.948,-18.9168563335046
1.954,-18.9368186454179
1.96,-18.9568056433246
1.966,-18.9768138376582
1.972,-18.9968396871303
1.978,-19.0168796050733
1.984,-19.0369299653226
1.99,-19.0569871075503
1.996,-19.0770473419785
2.002,-19.0971069534125
2.008,-19.1171622045551
2.014,-19.1372093385766
2.02,-19.157244580934
2.026,-19.1772641404473
2.032,-19.1972642096566
2.038,-19.2172409644955
2.044,-19.2371905633275
2.05,-19.2571091454016
2.056,-19.2769928287904
2.062,-19.2968377078763
2.068,-19.3166398504584
2.074,-19.3363952945501
2.08,-19.3561000449392
2.086,-19.3757500695796
2.092,-19.395341295881
2.098,-19.4148696069598
2.104,-19.4343308379089
2.11,-19.4537207721406
2.116,-19.4730351378514
2.122,-19.4922696046515
2.128,-19.5114197803992
2.134,-19.5304812082726
2.14,-19.5494493641085
2.146,-19.5683196540349
2.152,-19.5870874124159
2.158,-19.6057479001301
2.164,-19.6242963031945
2.17,-19.6427277317485
2.176,-19.6610372194066
2.182,-19.6792197229885
2.188,-19.6972701226336
2.194,-19.7151832223033
2.2,-19.7329537506782
2.206,-19.7505763624512
2.212,-19.7680456400204
2.218,-19.7853560955838
2.224,-19.8025021736385
2.23,-19.8194782538857
2.236,-19.8362786545429
2.242,-19.852897636066
2.248,-19.8693294052818
2.254,-19.8855681199332
2.26,-19.9016078936381
2.266,-19.9174428012638
2.272,-19.9330668847176
2.278,-19.9484741591557
2.284,-19.9636586196101
2.29,-19.9786142480357
2.296,-19.9933350207762
2.302,-20.0078149164502
2.308,-20.022047924256
2.314,-20.036028052694
2.32,-20.049749338706
2.326,-20.0632058572265
2.332,-20.076391731145
2.338,-20.0893011416738
2.344,-20.1019283391155
2.35,-20.1142676540253
2.356,-20.1263135087582
2.362,-20.1380604293951
2.368,-20.149503058035
2.374,-20.1606361654431
2.38,-20.171454664042
2.386,-20.1819536212301
2.392,-20.1921282730127
2.398,-20.201974037927
2.404,-20.2114865312421
2.41,-20.2206615794125
2.416,-20.2294952347626
2.422,-20.2379837903781
2.428,-20.2461237951767
2.434,-20.2539120691321
2.44,-20.2613457186191
2.446,-20.2684221518509
2.452,-20.2751390943734
2.458,-20.2814946045831
2.464,-20.2874870892319
2.47,-20.2931153188801
2.476,-20.2983784432602
2.482,-20.3032760065087
2.488,-20.3078079622259
2.494,-20.3119746883188
2.5,-20.3157770015853
2.506,-20.3192161719916
2.512,-20.3222939365998
2.518,-20.3250125130979
2.524,-20.3273746128846
2.53,-20.3293834536632
2.536,-20.3310427714948
2.542,-20.3323568322657
2.548,-20.333330442519
2.554,-20.3339689596051
2.56,-20.3342783011034
2.566,-20.3342649534689
2.572,-20.3339359798597
2.578,-20.3332990270997
2.584,-20.3323623317339
2.59,-20.331134725135
2.596,-20.3296256376202
2.602,-20.3278451015404
2.608,-20.3258037533048
2.614,-20.3235128343058
2.62,-20.320984190712
2.626,-20.3182302720994
2.632,-20.3152641288922
2.638,-20.3120994085883
2.644,-20.3087503507473
2.65,-20.305231780721
2.656,-20.3015591021098
2.662,-20.2977482879315
2.668,-20.2938158704918
2.674,-20.28977892995
2.68,-20.2856550815757
2.686,-20.2814624616962
2.692,-20.2772197123389
2.698,-20.2729459645742
2.704,-20.2686608205717
2.71,-20.2643843343827
2.716,-20.2601369914678
2.722,-20.2559396869937
2.728,-20.2518137029227
2.734,-20.2477806839292
2.74,-20.243862612174
2.746,-20.2400817809787
2.752,-20.2364607674409
2.758,-20.2330224040381
2.764,-20.2297897492717
2.77,-20.2267860574072
2.776,-20.2240347473683
2.782,-20.2215593708514
2.788,-20.2193835797255
2.794,-20.2175310927918
2.8,-20.2160256619755
2.806,-20.214891038033
2.812,-20.2141509358525
2.818,-20.2138289994387
2.824,-20.2139487666679
2.83,-20.2145336339061
2.836,-20.2156068205861
2.842,-20.2171913338399
2.848,-20.2193099332846
2.854,-20.2219850960638
2.86,-20.2252389822467
2.866,-20.2290934006851
2.872,-20.2335697754343
2.878,-20.238689112839
2.884,-20.2444719693862
2.89,-20.2509384204275
2.896,-20.2581080298687
2.902,-20.2659998209243
2.908,-20.2746322480314
2.914,-20.2840231700131
2.92,-20.2941898245792
2.926,-20.3051488042462
2.932,-20.3169160337536
2.938,-20.3295067490497
2.944,-20.342935477912
2.95,-20.3572160222621
2.956,-20.3723614422276
2.962,-20.3883840419969
2.968,-20.4052953575048
2.974,-20.4231061459794
2.98,-20.4418263773713
2.986,-20.4614652276814
2.992,-20.4820310741908
2.998,-20.5035314925915
3.004,-20.5259732560067
3.01,-20.5493623358827
3.016,-20.5737039047229
3.022,-20.5990023406323
3.028,-20.6252612336275
3.034,-20.6524833936638
3.04,-20.6806708603231
3.046,-20.7098249140985
3.052,-20.7399460892086
3.058,-20.7710341878657
3.064,-20.8030882959192
3.07,-20.8361067997919
3.076,-20.87008740462
3.082,-20.9050271535079
3.088,-20.9409224478051
3.094,-20.9777690683093
3.1,-21.0155621973007
3.106,-21.0542964413108
3.112,-21.093965854528
3.118,-21.1345639627442
3.124,-21.176083787748
3.13,-21.2185178720678
3.136,-21.2618583039768
3.142,-21.3060967426666
3.148,-21.3512244435057
3.154,-21.3972322832978
3.16,-21.4441107854606
3.166,-21.4918501450485
3.172,-21.5404402535486
3.178,-21.5898707233796
3.184,-21.640130912033
3.19,-21.6912099457958
3.196,-21.7430967430011
3.202,-21.7957800367569
3.208,-21.8492483971087
3.214,-21.9034902525944
3.22,-21.9584939111564
3.226,-22.0142475803802
3.232,-22.0707393870316
3.238,-22.12795739587
3.244,-22.1858896277203
3.25,-22.2445240767877
3.256,-22.3038194611833
3.262,-22.3637517900251
3.268,-22.4243162524113
3.274,-22.4855078086492
3.28,-22.5473211907802
3.286,-22.6097509029736
3.292,-22.6727912217676
3.298,-22.7364361961355
3.304,-22.800679647354
3.31,-22.8655151686507
3.316,-22.9309361246092
3.322,-22.996935650306
3.328,-23.0635066501597
3.334,-23.1306417964659
3.34,-23.1983335275974
3.346,-23.2665740458452
3.352,-23.3353553148789
3.358,-23.4046690568026
3.364,-23.4745067487852
3.37,-23.5448596192439
3.376,-23.6157186435585
3.382,-23.6870745392964
3.388,-23.7589177609299
3.394,-23.8312384940242
3.4,-23.904026648881
3.406,-23.9772718536181
3.412,-24.0509634466718
3.418,-24.1250904687054
3.424,-24.1996416539138
3.43,-24.2746054207102
3.436,-24.349969861789
3.442,-24.4257227335556
3.448,-24.5018514449204
3.454,-24.5783430454549
3.46,-24.655184212911
3.466,-24.7323612401084
3.472,-24.809860021199
3.478,-24.8876660373197
3.484,-24.9657643416508
3.49,-25.0441395439018
3.496,-25.1227757942509
3.502,-25.2016567667708
3.508,-25.2807656423794
3.514,-25.3600850913607
3.52,-25.439597255508
3.526,-25.5192837299506
3.532,-25.5991255447305
3.538,-25.6791031462085
3.544,-25.7591963783849
3.55,-25.8393844642319
3.556,-25.9196459871444
3.562,-25.9999588726286
3.568,-26.0803003703558
3.574,-26.1606470367254
3.58,-26.2409747180892
3.586,-26.3212585348048
3.592,-26.4014728662972
3.598,-26.4815913373219
3.604,-26.5615868056338
3.61,-26.6414313512828
3.616,-26.7210962677643
3.622,-26.8005520552716
3.628,-26.8797684163008
3.634,-26.9587142538769
3.64,-27.0373576726715
3.646,-27.1156659832966
3.652,-27.1936057100592
3.658,-27.2711426024685
3.664,-27.3482416507852
3.67,-27.4248671059034
3.676,-27.5009825038456
3.682,-27.5765506951469
3.688,-27.6515338793852
3.694,-27.7258936451007
3.7,-27.7995910153223
3.706,-27.8725864988897
3.712,-27.9448401477263
3.718,-28.0163116201799
3.724,-28.0869602504995
3.73,-28.1567451244649
3.736,-28.2256251611324
3.742,-28.2935592005889
3.748,-28.3605060975456
3.754,-28.4264248205222
3.76,-28.4912745562981
3.766,-28.5550148192229
3.772,-28.6176055648958
3.778,-28.6790073076346
3.784,-28.7391812410704
3.79,-28.7980893611187
3.796,-28.8556945904929
3.802,-28.9119609038486
3.808,-28.9668534525748
3.814,-29.0203386881825
3.82,-29.0723844831849
3.826,-29.1229602483202
3.832,-29.1720370449349
3.838,-29.2195876913295
3.844,-29.2655868618632
3.85,-29.3100111776321
3.856,-29.3528392875628
3.862,-29.3940519388142
3.868,-29.4336320354441
3.874,-29.4715646843812
3.88,-29.5078372278414
3.886,-29.542439261441
3.892,-29.5753626373856
3.898,-29.6066014522537
3.904,-29.6361520190401
3.91,-29.6640128232798
3.916,-29.6901844632303
3.922,-29.7146695742513
3.928,-29.7374727376782
3.934,-29.7586003746391
3.94,-29.7780606254125
3.946,-29.7958632150596
3.952,-29.8120193061889
3.958,-29.8265413398241
3.964,-29.839442865438
3.97,-29.8507383612981
3.976,-29.8604430463256
3.982,-29.8685726847161
3.988,-29.8751433845903
3.994,-29.880171391954
4,-29.8836728812319
4.006,-29.8856637436151
4.012,-29.8861593744212
4.018,-29.8851744606091
4.024,-29.8827227695294
4.03,-29.8788169399125
4.036,-29.8734682760189
4.042,-29.8666865457889
4.048,-29.8584797837403
4.054,-29.8488540992766
4.06,-29.8378134909807
4.066,-29.8253596673883
4.072,-29.8114918746613
4.078,-29.7962067315149
4.084,-29.7794980716997
4.09,-29.7613567942942
4.096,-29.741770722044
4.102,-29.7207244679686
4.108,-29.6981993104741
4.114,-29.6741730772403
4.12,-29.6486200382128
4.126,-29.6215108081183
4.132,-29.5928122590395
4.138,-29.5624874437441
4.144,-29.5304955306593
4.15,-29.4967917516246
4.156,-29.4613273638533
4.162,-29.4240496278891
4.168,-29.3849018037708
4.174,-29.3438231681226
4.18,-29.3007490554861
4.186,-29.2556109279166
4.192,-29.2083364776917
4.198,-29.1588497689533
4.204,-29.1070714252405
4.21,-29.0529188711975
4.216,-28.996306638291
4.222,-28.9371467461713
4.228,-28.8753491734048
4.234,-28.8108224337281
4.24,-28.7434742767686
4.246,-28.6732125353931
4.252,-28.5999461455156
4.258,-28.5235863683763
4.264,-28.444048249999
4.27,-28.3612523577841
4.276,-28.2751268399472
4.282,-28.1856098597279
4.288,-28.0926524628121
4.294,-27.9962219429935
4.3,-27.8963057773511
4.306,-27.7929162075293
4.312,-27.6860955471804
4.318,-27.5759222959878
4.324,-27.4625181361534
4.33,-27.3460558753878
4.336,-27.2267683781137
4.342,-27.1049584897228
4.348,-26.9810099023343
4.354,-26.8553988287849
4.36,-26.7287062382554
4.366,-26.6016302560378
4.372,-26.4749981371631
4.378,-26.3497769885697
4.384,-26.2270821438943
4.39,-26.1081818067726
4.396,-25.9944963065836
4.402,-25.8875901085166
4.408,-25.7891546624161
4.414,-25.7009803532563
4.42,-25.6249163241557
4.426,-25.562817851652
4.432,-25.5164822750147
4.438,-25.4875761318362
4.444,-25.4775579222574
4.45,-25.4876024868583
4.456,-25.5185339469866
4.462,-25.5707741677651
4.468,-25.6443125733132
4.474,-25.7387009440757
4.48,-25.8530739161245
4.486,-25.9861928454338
4.492,-26.1365081037282
4.498,-26.3022332085659
4.504,-26.4814236710078
4.51,-26.6720539958566
4.516,-26.8720876008685
4.522,-27.0795361439323
4.528,-27.2925064931398
4.534,-27.509235075394
4.54,-27.7281104526391
4.546,-27.9476856715687
4.552,-28.1666822607955
4.558,-28.3839877957553
4.564,-28.5986488108448
4.57,-28.8098605940042
4.576,-29.0169551149211
4.582,-29.2193880571179
4.588,-29.4167256713482
4.594,-29.6086319544975
4.6,-29.7948564871504
4.606,-29.9752231314589
4.612,-30.1496196936002
4.618,-30.3179885857842
4.624,-30.48031847544
4.63,-30.6366368785718
4.636,-30.7870036358974
4.642,-30.9315052007464
4.648,-31.0702496641004
4.654,-31.2033624425729
4.66,-31.330982558087
4.666,-31.4532594424657
4.672,-31.5703502053854
4.678,-31.6824173096651
4.684,-31.7896266033632
4.69,-31.8921456634315
4.696,-31.9901424106223
4.702,-32.0837839599012
4.708,-32.1732356747719
4.714,-32.2586603976614
4.72,-32.3402178318797
4.726,-32.4180640536646
4.732,-32.4923511354946
4.738,-32.5632268642187
4.744,-32.630834539647
4.75,-32.6953128410996
4.756,-32.7567957510429
4.762,-32.8154125263811
4.768,-32.8712877092366
4.774,-32.9245411701662
4.78,-32.9752881777319
4.786,-33.0236394892054
4.792,-33.0697014579281
4.798,-33.1135761535057
4.804,-33.1553614915855
4.81,-33.1951513704601
4.816,-33.2330358121745
4.822,-33.2691011061876
4.828,-33.3034299539634
4.834,-33.336101613147
4.84,-33.3671920402244
4.846,-33.3967740307696
4.852,-33.4249173565641
4.858,-33.4516888990238
4.864,-33.4771527785006
4.87,-33.5013704791331
4.876,-33.5244009690182
4.882,-33.5463008155503
4.888,-33.5671242958435
4.894,-33.5869235022046
4.9,-33.6057484426724
4.906,-33.6236471366732
4.912,-33.6406657058764
4.918,-33.6568484603543
4.924,-33.6722379801722
4.93,-33.6868751925476
4.936,-33.7007994447316
4.942,-33.7140485727688
4.948,-33.7266589663032
4.954,-33.7386656295951
4.96,-33.7501022389212
4.966,-33.7610011965243
4.972,-33.7713936812842
4.978,-33.7813096962721
4.984,-33.7907781133548
4.99,-33.7998267150062
4.996,-33.8084822334825
5.002,-33.8167703875116
5.008,-33.8247159166427
5.014,-33.832342613399
5.02,-33.8396733533682
5.026,-33.8467301233634
5.032,-33.8535340477802
5.038,-33.8601054132717
5.044,-33.8664636918578
5.05,-33.8726275625803
5.056,-33.87861493181
5.062,-33.8844429523086
5.068,-33.890128041143
5.074,-33.8956858965442
5.08,-33.9011315137997
5.086,-33.9064792002651
5.092,-33.9117425895741
5.098,-33.9169346551236
5.104,-33.9220677229079
5.11,-33.9271534837695
5.116,-33.9322030051333
5.122,-33.9372267422851
5.128,-33.9422345492552
5.134,-33.9472356893597
5.14,-33.9522388454547
5.146,-33.957252129951
5.152,-33.9622830946367
5.158,-33.9673387403504
5.164,-33.9724255265466
5.17,-33.9775493807905
5.176,-33.9827157082187
5.182,-33.9879294009978
5.188,-33.9931948478112
5.194,-33.9985159434028
5.2,-34.0038960982022
5.206,-34.009338248056
5.212,-34.0148448640842
5.218,-34.0204179626824
5.224,-34.0260591156846
5.23,-34.0317694607034
5.236,-34.0375497116573
5.242,-34.0434001694976
5.248,-34.0493207331424
5.254,-34.0553109106244
5.26,-34.0613698304579
5.266,-34.0674962532258
5.272,-34.0736885833908
5.278,-34.0799448813268
5.284,-34.0862628755712
5.29,-34.0926399752917
5.296,-34.0990732829639
5.302,-34.1055596072515
5.308,-34.1120954760809
5.314,-34.1186771499008
5.32,-34.1253006351147
5.326,-34.1319616976742
5.332,-34.1386558768192
5.338,-34.1453784989496
5.344,-34.1521246916133
5.35,-34.1588893975924
5.356,-34.1656673890694
5.362,-34.1724532818558
5.368,-34.1792415496609
5.374,-34.1860265383821
5.38,-34.1928024803949
5.386,-34.1995635088192
5.392,-34.2063036717426
5.398,-34.2130169463737
5.404,-34.2196972531061
5.41,-34.2263384694672
5.416,-34.2329344439282
5.422,-34.2394790095538
5.428,-34.2459659974643
5.434,-34.25238925009
5.44,-34.2587426341922
5.446,-34.2650200536284
5.452,-34.2712154618397
5.458,-34.2773228740362
5.464,-34.2833363790617
5.47,-34.2892501509132
5.476,-34.2950584598982
5.482,-34.3007556834077
5.488,-34.3063363162887
5.494,-34.3117949807969
5.5,-34.3171264361137
5.506,-34.3268474398027
5.512,-34.3365051143436
5.518,-34.3461006932561
5.524,-34.3556354287115
5.53,-34.365110591115
5.536,-34.3745274687174
5.542,-34.3838873672559
5.548,-34.393191609627
5.554,-34.402441535591
5.56,-34.4116385015102
5.566,-34.4207838801224
5.572,-34.4298790603497
5.578,-34.4389254471453
5.584,-34.4479244613787
5.59,-34.4568775397609
5.596,-34.4657861348114
5.602,-34.4746517148671
5.608,-34.4834757641367
5.614,-34.4922597827995
5.62,-34.5010052871526
5.626,-34.5097138098056
5.632,-34.5183868999267
5.638,-34.5270261235395
5.644,-34.5356330638744
5.65,-34.5442093217738
5.656,-34.5527565161546
5.662,-34.5612762845286
5.668,-34.569770283583
5.674,-34.5782401898217
5.68,-34.5866877002696
5.686,-34.5951145332412
5.692,-34.6035224291747
5.698,-34.6119131515327
5.704,-34.6202884877705
5.71,-34.6286502503733
5.716,-34.6370002779621
5.722,-34.6453404364686
5.728,-34.6536726203796
5.734,-34.6619987540493
5.74,-34.6703207930775
5.746,-34.6786407257537
5.752,-34.6869605745615
5.758,-34.6952823977403
5.764,-34.7036082908986
5.77,-34.7119403886715
5.776,-34.7202808664124
5.782,-34.7286319419095
5.788,-34.7369958771094
5.794,-34.7453749798335
5.8,-34.7537716054632
5.806,-34.7621881585682
5.812,-34.7706270944461
5.818,-34.7790909205337
5.824,-34.787582197644
5.83,-34.7961035409713
5.836,-34.8046576207977
5.842,-34.8132471628178
5.848,-34.8218749479859
5.854,-34.8305438117656
5.86,-34.8392566426436
5.866,-34.8480163797377
5.872,-34.8568260092977
5.878,-34.8656885598571
5.884,-34.8746070957461
5.89,-34.883584708618
5.896,-34.8926245065728
5.902,-34.9017296003772
5.908,-34.9109030861812
5.914,-34.9201480240078
5.92,-34.9294674111487
5.926,-34.9388641494183
5.932,-34.9483410050058
5.938,-34.9579005594021
5.944,-34.9675451495643
5.95,-34.9772767950924
5.956,-34.9870971097255
5.962,-34.9970071938949
5.968,-35.0070075043723
5.974,-35.0170976962025
5.98,-35.0272764310756
5.986,-35.0375411450218
5.992,-35.0478877667719
5.998,-35.0583103762398
6.004,-35.0688007902891
6.01,-35.0793480601575
6.016,-35.089937861541
6.022,-35.1005517542664
6.028,-35.1111662836151
6.034,-35.1217518895828
6.04,-35.1322715835948
6.046,-35.1426793444229
6.052,-35.1529181763508
