"Freq [GHz]","dB(St(1,2)) []"
1,-16.1996593999816
1.006,-16.8923689892532
1.012,-17.5067214233207
1.018,-17.9343441930823
1.024,-18.2162925332524
1.03,-18.3815971701627
1.036,-18.4665271956077
1.042,-18.497439088827
1.048,-18.4933650974156
1.054,-18.468282939309
1.06,-18.4316908890579
1.066,-18.3900223499374
1.072,-18.3521739862723
1.078,-18.3125898932393
1.084,-18.279830852922
1.09,-18.2534663438487
1.096,-18.2337181088289
1.102,-18.2203893478313
1.108,-18.2129715378354
1.114,-18.2107612783947
1.12,-18.2129530345783
1.126,-18.2187060898004
1.132,-18.2271774039182
1.138,-18.2372942653726
1.144,-18.2486318034398
1.15,-18.2599573791233
1.156,-18.2707012629554
1.162,-18.2801809687658
1.168,-18.2878189962653
1.174,-18.2931106887739
1.18,-18.2956247417393
1.186,-18.2950037296327
1.192,-18.2909631214541
1.198,-18.283289327074
1.204,-18.2718404415787
1.21,-18.2567249872082
1.216,-18.2371747654219
1.222,-18.2140677301977
1.228,-18.1871154677047
1.234,-18.1564317021376
1.24,-18.1221507088898
1.246,-18.0844319513967
1.252,-18.0434564355372
1.258,-17.9994230392893
1.264,-17.9525468680591
1.27,-17.9030664376497
1.276,-17.8513270754763
1.282,-17.791905070593
1.288,-17.7414400152698
1.294,-17.6841289358113
1.3,-17.6253713498609
1.306,-17.5655405382743
1.312,-17.5048936684481
1.318,-17.4436688525915
1.324,-17.3820978375677
1.33,-17.3204071806706
1.336,-17.258816933549
1.342,-17.1975387565897
1.348,-17.1367740229819
1.354,-17.0767121140139
1.36,-17.0175289894266
1.366,-16.9593860703377
1.372,-16.9024294528192
1.378,-16.8467894666958
1.384,-16.7925806109703
1.39,-16.7399019617521
1.396,-16.6888383636546
1.402,-16.6394635300049
1.408,-16.5918501798002
1.414,-16.5461238899585
1.42,-16.5035498868315
1.426,-16.4582011964792
1.432,-16.4181798262103
1.438,-16.3795383489808
1.444,-16.3425863138821
1.45,-16.3073451029206
1.456,-16.2737950755876
1.462,-16.2419020122233
1.468,-16.2116236556348
1.474,-16.1829123303223
1.48,-16.1557164248626
1.486,-16.1299814368556
1.492,-16.1056508008542
1.498,-16.0826665813577
1.504,-16.060970066275
1.51,-16.0405022786842
1.516,-16.0212044175619
1.522,-16.003018235056
1.528,-15.9858863564635
1.534,-15.9697525483596
1.54,-15.9545619399187
1.546,-15.9402612021683
1.552,-15.9267986896574
1.558,-15.9141245487631
1.564,-15.9021936554334
1.57,-15.8909561853468
1.576,-15.8803558347539
1.582,-15.8703528681172
1.588,-15.8609090069154
1.594,-15.8519873115877
1.6,-15.8435519914616
1.606,-15.8355680286012
1.612,-15.8280002338642
1.618,-15.8208100902858
1.624,-15.8139394723101
1.63,-15.8070643760318
1.636,-15.8018950332816
1.642,-15.7957514491892
1.648,-15.790061058843
1.654,-15.7846322265518
1.66,-15.7794198706532
1.666,-15.7743953301334
1.672,-15.7695346078429
1.678,-15.76481593611
1.684,-15.7602191804833
1.69,-15.7557262017946
1.696,-15.7513247329091
1.702,-15.7471293985196
1.708,-15.7425874591818
1.714,-15.7383405699899
1.72,-15.7340888094483
1.726,-15.7298321726978
1.732,-15.7255584238881
1.738,-15.7212541158569
1.744,-15.716905859448
1.75,-15.7125005983994
1.756,-15.7080256822505
1.762,-15.7034688824666
1.768,-15.6988183893417
1.774,-15.6940628017778
1.78,-15.6891911145396
1.786,-15.6841927050817
1.792,-15.6790573212511
1.798,-15.6737750712399
1.804,-15.6683364181458
1.81,-15.6627321844746
1.816,-15.6569535809078
1.822,-15.6509923050666
1.828,-15.644840895133
1.834,-15.6384944326238
1.84,-15.6319686851253
1.846,-15.6250275028085
1.852,-15.6181000650732
1.858,-15.6108804706011
1.864,-15.6034172281532
1.87,-15.5957084514496
1.876,-15.5877489627478
1.882,-15.57953306328
1.888,-15.5710550530315
1.894,-15.5623093815388
1.9,-15.5532907046112
1.906,-15.5439939087588
1.912,-15.5344141206131
1.918,-15.5245467068048
1.924,-15.5143872665938
1.93,-15.5039316194723
1.936,-15.4931757915404
1.942,-15.4821160076972
1.948,-15.4707487033646
1.954,-15.459070586395
1.96,-15.4470788334419
1.966,-15.4347717172007
1.972,-15.4221511022221
1.978,-15.4092390521559
1.984,-15.39764972025
1.99,-15.3820843983056
1.996,-15.3681857442901
2.002,-15.3539044446838
2.008,-15.3392707984403
2.014,-15.324288231826
2.02,-15.3089560361682
2.026,-15.293272439209
2.032,-15.2772353555492
2.038,-15.2608426332796
2.044,-15.2440921511322
2.05,-15.2269818615089
2.056,-15.2095098109973
2.062,-15.19167415055
2.068,-15.1734731405846
2.074,-15.1549051534905
2.08,-15.1359686748021
2.086,-15.1166623037129
2.092,-15.0969847533078
2.098,-15.0769348507285
2.104,-15.0565115373998
2.11,-15.0357138693876
2.116,-15.0145410179354
2.122,-14.9929922702004
2.128,-14.9709950949333
2.134,-14.9485525827302
2.14,-14.9257358375085
2.146,-14.9025424496496
2.152,-14.8789699230102
2.158,-14.8550156689845
2.164,-14.8306770002348
2.17,-14.8059511240711
2.176,-14.7808351354654
2.182,-14.7553260096801
2.188,-14.7294205944884
2.194,-14.7031156019643
2.2,-14.6764075998114
2.206,-14.6492930021995
2.212,-14.6217680600695
2.218,-14.5938288508595
2.224,-14.5654712675953
2.23,-14.5366910072746
2.236,-14.5074835584571
2.242,-14.4778441879487
2.248,-14.4477679264358
2.254,-14.4172495528845
2.26,-14.3862835774588
2.266,-14.3548642226319
2.272,-14.3229854020502
2.278,-14.2906406965495
2.284,-14.2578233264889
2.29,-14.2245261192327
2.296,-14.1907414701081
2.302,-14.1564612944131
2.308,-14.1216769668879
2.314,-14.086379243247
2.32,-14.0505581554449
2.326,-14.014202867541
2.332,-13.9773014708744
2.338,-13.9398406829952
2.344,-13.9018053889186
2.35,-13.8631779143495
2.356,-13.8239368235656
2.362,-13.7840548316091
2.368,-13.7434949667191
2.374,-13.702203023045
2.38,-13.6600914324512
2.386,-13.6170009700878
2.392,-13.572596253009
2.398,-13.5260195865179
2.404,-13.4743579063422
2.41,-13.4017434630943
2.416,-13.2170843021147
2.422,-13.3224742664998
2.428,-13.302293544542
2.434,-13.2592133108534
2.44,-13.2119732542015
2.446,-13.163058230598
2.452,-13.1130205301291
2.458,-13.0620144854163
2.464,-13.010081882483
2.47,-12.9572253288665
2.476,-12.9034314809515
2.482,-12.8486795387439
2.488,-12.7929446926737
2.494,-12.7361996309633
2.5,-12.6784152331622
2.506,-12.6195608976609
2.512,-12.5596046953335
2.518,-12.4985134370352
2.524,-12.4362526971633
2.53,-12.3727868145508
2.536,-12.308078881887
2.542,-12.2420907298463
2.548,-12.174782909541
2.554,-12.1061146755947
2.56,-12.0360439714634
2.566,-11.9645274183162
2.572,-11.8915203086803
2.578,-11.8169766060745
2.584,-11.7408489519565
2.59,-11.6630886814776
2.596,-11.5836458497653
2.602,-11.5024692707296
2.608,-11.4195065707277
2.614,-11.3347042598156
2.62,-11.2480078237897
2.626,-11.1593618407656
2.632,-11.0687101266907
2.638,-10.9759959149397
2.644,-10.8811620760219
2.65,-10.7841513844626
2.656,-10.6849068411175
2.662,-10.5833720605824
2.668,-10.4794917349866
2.674,-10.373212187348
2.68,-10.264482029859
2.686,-10.1532529449975
2.692,-10.0394806102604
2.698,-9.92312579064038
2.704,-9.80415562673688
2.71,-9.68254515064334
2.716,-9.55827906648632
2.722,-9.43135383769302
2.728,-9.30178012866537
2.734,-9.16958565441309
2.74,-9.03481849761926
2.746,-8.89755095821936
2.752,-8.75788400531422
2.758,-8.61595240430579
2.764,-8.47193059238785
2.77,-8.32603937136578
2.776,-8.17855347610831
2.782,-8.02981005706791
2.788,-7.88021808309614
2.794,-7.73026862325568
2.8,-7.58054590341766
2.806,-7.4317389701356
2.812,-7.28465383079532
2.818,-7.14022686635136
2.824,-6.99955565231967
2.83,-6.86353097905953
2.836,-6.73418391064566
2.842,-6.61254505039609
2.848,-6.50037372626591
2.854,-6.39946315898329
2.86,-6.31170258701142
2.866,-6.23904442093921
2.872,-6.18345589226869
2.878,-6.14685889378846
2.884,-6.13106062522212
2.89,-6.13767898802037
2.896,-6.16806814158393
2.902,-6.2232506720359
2.908,-6.30386305352807
2.914,-6.41012027336054
2.92,-6.5418036489106
2.926,-6.69827325510111
2.932,-6.87850348693256
2.938,-7.08113765813339
2.944,-7.304555628481
2.95,-7.54694735251612
2.956,-7.8063838807879
2.962,-8.08086393319167
2.968,-8.36725788758647
2.974,-8.66789374721245
2.98,-8.97621417188804
2.986,-9.29243126442143
2.992,-9.61497192780517
2.998,-9.94246227319266
3.004,-10.2736858829803
3.01,-10.6075738220205
3.016,-10.9431953213408
3.022,-11.2797471900089
3.028,-11.6165423467339
3.034,-11.952998062536
3.04,-12.2886243994018
3.046,-12.6230131868053
3.052,-12.9558277522031
3.058,-13.2867935231826
3.064,-13.6156895466619
3.07,-13.9423409201981
3.076,-14.266612097343
3.082,-14.5884010088363
3.088,-14.907633930678
3.094,-15.2242610259562
3.1,-15.5382524875544
3.106,-15.8495952119457
3.112,-16.1582899390246
3.118,-16.4643487985395
3.124,-16.7677932096062
3.13,-17.0686520856571
3.136,-17.366960302775
3.142,-17.6627573945561
3.148,-17.956086441377
3.154,-18.246993126181
3.16,-18.5355249326711
3.166,-18.8217304651079
3.172,-19.1056588718184
3.178,-19.3873593570381
3.184,-19.6668807679006
3.19,-19.9442712452787
3.196,-20.219577928804
3.202,-20.4928467078009
3.208,-20.7641220110655
3.214,-21.0334466294601
3.22,-21.3008615661752
3.226,-21.5664059102732
3.232,-21.8301167297804
3.238,-22.0920289811519
3.244,-22.3521754324176
3.25,-22.6105865977303
3.256,-22.8672237037359
3.262,-23.1221873348997
3.268,-23.3754945011383
3.274,-23.627159751945
3.28,-23.8771950762158
3.286,-24.1256098072635
3.292,-24.3724105322627
3.298,-24.61760100555
3.304,-24.8611820653839
3.31,-25.1031515539245
3.316,-25.3435042403548
3.322,-25.5822317472078
3.328,-25.8193224801103
3.334,-26.0547615612932
3.34,-26.2885307673546
3.346,-26.5206084718956
3.352,-26.7509695937823
3.358,-26.9795855519167
3.364,-27.2064242275261
3.37,-27.4314499351036
3.376,-27.6546234032519
3.382,-27.8759017667906
3.388,-28.0952385715955
3.394,-28.312583793721
3.4,-28.5278838744421
3.406,-28.741081772903
3.412,-28.9521170381018
3.418,-29.1609259019475
3.424,-29.3674413951095
3.43,-29.5715934873247
3.436,-29.7733092537327
3.442,-29.9725130686784
3.448,-30.1691268282321
3.454,-30.3630702024492
3.46,-30.5542609180995
3.466,-30.7426150722599
3.472,-30.928047476764
3.478,-31.1104720330576
3.484,-31.2898021365091
3.49,-31.4659511086814
3.496,-31.6388326554981
3.502,-31.8083613486297
3.508,-31.9744531268123
3.514,-32.1370258131961
3.52,-32.2959996442249
3.526,-32.4512978049887
3.532,-32.602846965489
3.538,-32.7505778118257
3.544,-32.8944255659831
3.55,-33.0343304876682
3.556,-33.1702383515608
3.562,-33.3021008933794
3.568,-33.4298762183581
3.574,-33.5535291660751
3.58,-33.6730316260662
3.586,-33.7883627992946
3.592,-33.8995094013146
3.598,-34.0064658038488
3.604,-34.1092341124701
3.61,-34.2078241791156
3.616,-34.3022535492326
3.622,-34.392547344437
3.628,-34.4787380826173
3.634,-34.5608654384177
3.64,-34.6389759479528
3.646,-34.7131226624199
3.652,-34.7833647559645
3.658,-34.8497670937038
3.664,-34.9123997662174
3.67,-34.9713375970632
3.676,-35.0266596299783
3.682,-35.078448602385
3.688,-35.1267904116444
3.694,-35.1717735802096
3.7,-35.2134887254388
3.706,-35.2520280393497
3.712,-35.2874847830599
3.718,-35.3199528000757
3.724,-35.3495260519806
3.73,-35.376298179465
3.736,-35.4003620910232
3.742,-35.4218095810652
3.748,-35.4407309786279
3.754,-35.4572148273643
3.76,-35.4713475970165
3.766,-35.4832134261689
3.772,-35.4928938957142
3.778,-35.5004678321598
3.784,-35.5060111396505
3.79,-35.5095966593807
3.796,-35.5112940549176
3.802,-35.5111697218494
3.808,-35.5092867201022
3.814,-35.5057047272393
3.82,-35.5004800110547
3.826,-35.4936654197992
3.832,-35.4853103884246
3.838,-35.4754609592984
3.844,-35.4641598159242
3.85,-35.4514463282934
3.856,-35.4373566085959
3.862,-35.4219235761238
3.868,-35.405177030313
3.874,-35.3871437309787
3.88,-35.3678474849126
3.886,-35.3473092381237
3.892,-35.3255471731098
3.898,-35.3025768106594
3.904,-35.2784111157839
3.91,-35.2530606074858
3.916,-35.2265334721659
3.922,-35.1988356805715
3.928,-35.1699711082825
3.934,-35.1399416598256
3.94,-35.1087473966041
3.946,-35.0763866689211
3.952,-35.0428562524717
3.958,-35.0081514897791
3.964,-34.9722664371479
3.97,-34.9351940178189
3.976,-34.8969261821203
3.982,-34.8574540755327
3.988,-34.8167682157164
3.994,-34.7748586796923
4,-34.7317153025233
4.006,-34.6873278890145
4.012,-34.6416864401384
4.018,-34.5947813960996
4.024,-34.5466038981809
4.03,-34.4971460717644
4.036,-34.4464013331976
4.042,-34.3943647234735
4.048,-34.3410332720227
4.054,-34.2864063942677
4.06,-34.2304863269672
4.066,-34.1732786057779
4.072,-34.1147925898781
4.078,-34.0550420389232
4.084,-33.9940457480309
4.09,-33.9318282469032
4.096,-33.8684205695677
4.102,-33.8038611015339
4.108,-33.7381965113768
4.114,-33.6714827738305
4.12,-33.6037862913517
4.126,-33.5351851207128
4.132,-33.46577031043
4.138,-33.395647353605
4.144,-33.3249377589423
4.15,-33.2537807401372
4.156,-33.1823350203448
4.162,-33.1107807438371
4.168,-33.0393214810339
4.174,-32.96818630562
4.18,-32.8976319132483
4.186,-32.8279447401776
4.192,-32.7594430270148
4.198,-32.6924787575025
4.204,-32.6274393852
4.21,-32.5647492423326
4.216,-32.5048705057757
4.222,-32.4483035761932
4.228,-32.3955867093978
4.234,-32.3472947261371
4.24,-32.3040366204145
4.246,-32.266451890197
4.252,-32.2352054312789
4.258,-32.210980868389
4.264,-32.194472249949
4.27,-32.1863741055981
4.276,-32.1873699580794
4.282,-32.198119490082
4.288,-32.2192446857666
4.294,-32.2513153863384
4.3,-32.2948348068521
4.306,-32.350225643562
4.312,-32.4178174440264
4.318,-32.4978359049141
4.324,-32.5903946990186
4.33,-32.6954903140671
4.336,-32.8130002197124
4.342,-32.9426844806937
4.348,-33.0841907235887
4.354,-33.2370621637496
4.36,-33.4007482283363
4.366,-33.5746171865629
4.372,-33.757970128377
4.378,-33.9500556193006
4.384,-34.1500843967265
4.39,-34.3572435510879
4.396,-34.5707097406346
4.402,-34.7896611071235
4.408,-35.0132876790034
4.414,-35.2408001586856
4.42,-35.4714370845088
4.426,-35.7044704324509
4.432,-35.9392097766548
4.438,-36.1750051626303
4.444,-36.4112488650774
4.45,-36.6473762068642
4.456,-36.882865610113
4.462,-37.117238037767
4.468,-37.3500559671221
4.474,-37.5809220178321
4.48,-37.8094773374852
4.486,-38.035399829192
4.492,-38.2584022884873
4.498,-38.4782305016667
4.504,-38.6946613446381
4.51,-38.9075009104797
4.516,-39.1165826850446
4.522,-39.321765782958
4.528,-39.5229332509855
4.534,-39.7199904417855
4.54,-39.912863458251
4.546,-40.101497666784
4.552,-40.2858562767343
4.558,-40.4659189826852
4.564,-40.6416806661504
4.57,-40.8131501534149
4.576,-40.9803490266134
4.582,-41.1433104856042
4.588,-41.302078258704
4.594,-41.4567055608437
4.6,-41.6072540981549
4.606,-41.7537931183816
4.612,-41.896398506811
4.618,-42.0351519276315
4.624,-42.1701400107509
4.63,-42.3014535841567
4.636,-42.4291869518708
4.642,-42.5534372174662
4.648,-42.6743036529746
4.654,-42.7918871128435
4.66,-42.9062894924007
4.666,-43.017613230079
4.672,-43.1259608524355
4.678,-43.2314345607982
4.684,-43.334135858172
4.69,-43.4341652148664
4.696,-43.5316217711482
4.702,-43.6266030750976
4.708,-43.7192048537417
4.714,-43.8095208154642
4.72,-43.8976424816428
4.726,-43.9836590454377
4.732,-44.067657255657
4.738,-44.1497213236429
4.744,-44.2299328511581
4.75,-44.3083707773102
4.756,-44.3851113426145
4.762,-44.4602280683736
4.768,-44.5337917496408
4.774,-44.6058704601204
4.78,-44.6765295674575
4.786,-44.7458317574645
4.792,-44.8138370659302
4.798,-44.8806029167525
4.804,-44.9461841652292
4.81,-45.0106331454357
4.816,-45.0739997206996
4.822,-45.1363313362694
4.828,-45.1976730733479
4.834,-45.2580677037355
4.84,-45.3175557443925
4.846,-45.376175511291
4.852,-45.4339631719836
4.858,-45.4909527963615
4.864,-45.5471764051246
4.87,-45.6026640155202
4.876,-45.6574436839441
4.882,-45.711541545028
4.888,-45.7649818468613
4.894,-45.8177869820194
4.9,-45.8699775140891
4.906,-45.9215721993974
4.912,-45.9725880036659
4.918,-46.0230401133251
4.924,-46.0729419412358
4.93,-46.1223051265769
4.936,-46.1711395286737
4.942,-46.2194532145565
4.948,-46.2672524400601
4.954,-46.3145416242985
4.96,-46.3613233173822
4.966,-46.4075981612866
4.972,-46.4533648438322
4.978,-46.4986200458019
4.984,-46.5433583813058
4.99,-46.5875723316052
4.996,-46.6312521727371
5.002,-46.6743858974334
5.008,-46.7169591320207
5.014,-46.7589550492129
5.02,-46.8003542779792
5.026,-46.8411348119909
5.032,-46.881271918526
5.038,-46.9207380501459
5.044,-46.959502761958
5.05,-46.997532637848
5.056,-47.0347912297041
5.062,-47.0712390143623
5.068,-47.1068333737742
5.074,-47.1415286047233
5.08,-47.175275965278
5.086,-47.2080237660449
5.092,-47.2397175151341
5.098,-47.2703001265331
5.104,-47.2997122022296
5.11,-47.3278923988696
5.116,-47.3547778898725
5.122,-47.3803049336605
5.128,-47.4044095578607
5.134,-47.4270283678771
5.14,-47.4480994859785
5.146,-47.4675636238723
5.152,-47.4853652875329
5.158,-47.501454107765
5.164,-47.5157862835925
5.17,-47.5283261181573
5.176,-47.539047618568
5.182,-47.5479361223628
5.188,-47.55498990439
5.194,-47.5602217095423
5.2,-47.5636601496217
5.206,-47.5653508974411
5.212,-47.5653576089257
5.218,-47.5637625052246
5.224,-47.5606665523193
5.23,-47.556189185702
5.236,-47.5504675424317
5.242,-47.5436551818746
5.248,-47.5359202988648
5.254,-47.527443457594
5.26,-47.5184148996138
5.266,-47.5090315030359
5.272,-47.4994934904271
5.278,-47.4900009982593
5.284,-47.4807506297088
5.29,-47.4719321142609
5.296,-47.4637251917704
5.302,-47.4562968258475
5.308,-47.4497988327831
5.314,-47.4443659893002
5.32,-47.4401146571
5.326,-47.4371419364458
5.332,-47.4355253367259
5.338,-47.4353229306152
5.344,-47.436573941232
5.35,-47.4392996992031
5.356,-47.4435048989978
5.362,-47.4491790810244
5.368,-47.4562982672446
5.374,-47.4648266826957
5.38,-47.474718502429
5.386,-47.4859195721075
5.392,-47.4983690600397
5.398,-47.5120010080664
5.404,-47.5267457579173
5.41,-47.5425312380194
5.416,-47.5592841030243
5.422,-47.576930724397
5.428,-47.5953980352648
5.434,-47.6146142364086
5.44,-47.6345093729025
5.446,-47.6550157926057
5.452,-47.676068498641
5.458,-47.6976054082985
5.464,-47.7195675306293
5.47,-47.7418990744702
5.476,-47.7645474978679
5.482,-47.7874635089505
5.488,-47.8106010272925
5.494,-47.833917113789
5.5,-47.8573718760494
5.506,-47.8727569231485
5.512,-47.8892179992474
5.518,-47.9068147090042
5.524,-47.9256090514361
5.53,-47.9456654230818
5.536,-47.9670506069772
5.542,-47.9898337454676
5.548,-48.0140862947361
5.554,-48.0398819587953
5.56,-48.0672966005617
5.566,-48.096408127521
5.572,-48.1272963493968
5.578,-48.1600428051674
5.584,-48.1947305567288
5.59,-48.2314439464995
5.596,-48.2702683162944
5.602,-48.3112896848794
5.608,-48.3545943817546
5.614,-48.4002686349126
5.62,-48.448398110584
5.626,-48.499067403318
5.632,-48.5523594751633
5.638,-48.608355043201
5.644,-48.6671319152613
5.65,-48.7287642743054
5.656,-48.7933219126836
5.662,-48.8608694182859
5.668,-48.9314653154679
5.674,-49.005161164559
5.68,-49.0820006247273
5.686,-49.1620184859756
5.692,-49.2452396770609
5.698,-49.3316782571463
5.704,-49.4213364000036
5.71,-49.5142033805657
5.716,-49.6102545745692
5.722,-49.7094504829264
5.728,-49.8117357933019
5.734,-49.9170384921536
5.74,-50.0252690412139
5.746,-50.1363196330441
5.752,-50.2500635408883
5.758,-50.3663545785852
5.764,-50.4850266867514
5.77,-50.6058936618317
5.776,-50.7287490448795
5.782,-50.853366187066
5.788,-50.9794985088538
5.794,-51.1068799694533
5.8,-51.2352257625121
5.806,-51.3642332528707
5.812,-51.4935831675334
5.818,-51.6229410516219
5.824,-51.7519589968857
5.83,-51.8802776462208
5.836,-52.0075284725185
5.842,-52.133336323998
5.848,-52.257322220995
5.854,-52.3791063810956
5.86,-52.4983114407271
5.866,-52.614565832149
5.872,-52.7275072656333
5.878,-52.8367862579908
5.884,-52.9420696410343
5.89,-53.0430439776819
5.896,-53.1394188097511
5.902,-53.2309296605919
5.908,-53.3173407179221
5.914,-53.398447127767
5.92,-53.4740768392361
5.926,-53.5440919517486
5.932,-53.6083895307413
5.938,-53.6669018741621
5.944,-53.7195962293123
5.95,-53.7664739769005
5.956,-53.8075693155589
5.962,-53.8429474946719
5.968,-53.8727026554344
5.974,-53.8969553490728
5.98,-53.915849806808
5.986,-53.9295510383848
5.992,-53.938241834978
5.998,-53.9421197483944
6.004,-53.9413941122106
6.01,-53.9362831624074
6.016,-53.9270113058028
6.022,-53.9138065747414
6.028,-53.8968982966118
6.034,-53.8765149972847
6.04,-53.8528825488506
6.046,-53.8262225643344
6.052,-53.7967510355173
6.058,-53.7646772046771
