"Freq [GHz]","dB(St(7,7)) []"
1,-23.2159478112047
1.006,-24.2596042583745
1.012,-24.1641913368653
1.018,-23.770150202449
1.024,-23.4815955983073
1.03,-23.2267586696628
1.036,-23.0272832111617
1.042,-22.9059618109661
1.048,-22.8281158847044
1.054,-22.7951387854734
1.06,-22.8027863205966
1.066,-22.8477640889366
1.072,-22.9257385557357
1.078,-23.0378205378204
1.084,-23.1795186296271
1.09,-23.3496670576587
1.096,-23.54672323841
1.102,-23.7692000520625
1.108,-24.0156336205512
1.114,-24.2845338993286
1.12,-24.5743291924065
1.126,-24.8833041829845
1.132,-25.2095363071033
1.138,-25.5509699765016
1.144,-25.9047841983162
1.15,-26.2683948290461
1.156,-26.6380207215297
1.162,-27.0095367669709
1.168,-27.3779061315658
1.174,-27.7372941705022
1.18,-28.0810844827034
1.186,-28.4019907405418
1.192,-28.6923103479765
1.198,-28.9443399606487
1.204,-29.1509202161486
1.21,-29.3050131691669
1.216,-29.4069648230896
1.222,-29.4500421888603
1.228,-29.437198480493
1.234,-29.371625036294
1.24,-29.2585254695937
1.246,-29.1044257679805
1.252,-28.916491656603
1.258,-28.7019252148252
1.264,-28.4675034420864
1.27,-28.2192594160182
1.276,-27.9621073627647
1.282,-27.7309094982061
1.288,-27.4395786884018
1.294,-27.1791283414004
1.3,-26.9233286150583
1.306,-26.6730934245463
1.312,-26.4295055460885
1.318,-26.1933641317828
1.324,-25.965180224316
1.33,-25.7452224305656
1.336,-25.5335652475541
1.342,-25.3301315926022
1.348,-25.1347284319438
1.354,-24.9470760930311
1.36,-24.7668321726198
1.366,-24.5936108893045
1.372,-24.4269985382104
1.378,-24.266565437764
1.384,-24.1118743364895
1.39,-23.9624843525221
1.396,-23.8179469917687
1.402,-23.6777816358108
1.408,-23.5413734206493
1.414,-23.4073886447594
1.42,-23.262165253508
1.426,-23.1703703318445
1.432,-23.0421856661949
1.438,-22.9213597049459
1.444,-22.8038779629253
1.45,-22.6889862280207
1.456,-22.5763414893447
1.462,-22.4657188533687
1.468,-22.3569460492824
1.474,-22.2498820557718
1.48,-22.1444079805106
1.486,-22.0404222091504
1.492,-21.9378373206098
1.498,-21.8365778521133
1.504,-21.7365785368556
1.51,-21.637782843317
1.516,-21.5401417312479
1.522,-21.4436125776982
1.528,-21.3481582445291
1.534,-21.2537462677696
1.54,-21.1603481538382
1.546,-21.0679387702664
1.552,-20.976495820186
1.558,-20.8859993909848
1.564,-20.7966124990607
1.57,-20.708828929313
1.576,-20.6221940560328
1.582,-20.536711712191
1.588,-20.4523853164711
1.594,-20.3692180048618
1.6,-20.2872129211852
1.606,-20.206373916451
1.612,-20.126707493165
1.618,-20.0482296071486
1.624,-19.9710014287831
1.63,-19.8956821979005
1.636,-19.8184598991033
1.642,-19.7450830536199
1.648,-19.6724397174903
1.654,-19.6008713570115
1.66,-19.5304191612479
1.666,-19.4610910096348
1.672,-19.392886120179
1.678,-19.3258000480554
1.684,-19.2598255974876
1.69,-19.1949508636793
1.696,-19.1311440144747
1.702,-19.0678626718984
1.708,-19.0072240239565
1.714,-18.9466340058864
1.72,-18.8871862061761
1.726,-18.828815005227
1.732,-18.7715016569589
1.738,-18.715233717622
1.744,-18.6600002770292
1.75,-18.6057908802167
1.756,-18.5525952043683
1.762,-18.5004029507778
1.768,-18.449203811634
1.774,-18.3989874664567
1.78,-18.3497435912945
1.786,-18.3014618737152
1.792,-18.2541320306744
1.798,-18.2077438284302
1.804,-18.1622871054415
1.81,-18.1177518021285
1.816,-18.0741280091091
1.822,-18.0314060718273
1.828,-17.9895769055733
1.834,-17.9486334339333
1.84,-17.9085857738158
1.846,-17.8692343833821
1.852,-17.8309322444587
1.858,-17.7934225497461
1.864,-17.7567419691341
1.87,-17.7208855058749
1.876,-17.6858453812408
1.882,-17.6516133290391
1.888,-17.6181810230254
1.894,-17.5855401970182
1.9,-17.5536826867494
1.906,-17.5226004459845
1.912,-17.4922855525877
1.918,-17.4627302101737
1.924,-17.4339267477396
1.93,-17.4058676185375
1.936,-17.378545399141
1.942,-17.3519527899015
1.948,-17.3260826190604
1.954,-17.3009278560155
1.96,-17.2764816497925
1.966,-17.2527374504463
1.972,-17.229689494663
1.978,-17.2073360524372
1.984,-17.185990075573
1.99,-17.1645996824048
1.996,-17.1442722276061
2.002,-17.1245979730052
2.008,-17.1055771091307
2.014,-17.0872046342266
2.02,-17.0694747875065
2.026,-17.0523816461149
2.032,-17.0359192695846
2.038,-17.0200817464282
2.044,-17.0048632119792
2.05,-16.9902578560387
2.056,-16.9762599264441
2.062,-16.9628637308902
2.068,-16.9500636379913
2.074,-16.9378540780409
2.08,-16.9262295436895
2.086,-16.9151845906578
2.092,-16.904713838541
2.098,-16.8948119717382
2.104,-16.8854737405199
2.11,-16.8766939622412
2.116,-16.8684675227004
2.122,-16.8607893776427
2.128,-16.8542641568687
2.134,-16.8487809367467
2.14,-16.8436938794746
2.146,-16.8390027981042
2.152,-16.8347073978209
2.158,-16.8308072669892
2.164,-16.8273018661298
2.17,-16.8241905143366
2.176,-16.8214723724909
2.182,-16.8191464224386
2.188,-16.8172114410252
2.194,-16.8156659675189
2.2,-16.8145082624546
2.206,-16.8137362552244
2.212,-16.8133474767585
2.218,-16.8133389722259
2.224,-16.8137071866442
2.23,-16.8144478132937
2.236,-16.8155555903662
2.242,-16.8170240245266
2.248,-16.8188450096634
2.254,-16.821008292802
2.26,-16.8235007131016
2.266,-16.8263050974199
2.272,-16.8293986254053
2.278,-16.8327503576803
2.284,-16.8363174153897
2.29,-16.8400389437982
2.296,-16.8438263844864
2.302,-16.8475476081457
2.308,-16.851001277519
2.314,-16.8538784045673
2.32,-16.8557221218559
2.326,-16.8559816573112
2.332,-16.8546371427367
2.338,-16.8547805881985
2.344,-16.8655621270532
2.35,-16.8900999985655
2.356,-16.9156859403783
2.362,-16.9353248986092
2.368,-16.9504747777163
2.374,-16.9633991173389
2.38,-16.9754048789002
2.386,-16.9871392301073
2.392,-16.9989198279382
2.398,-17.0109072414954
2.404,-17.0231857595596
2.41,-17.0358013269999
2.416,-17.0487799252496
2.422,-17.0621368303481
2.428,-17.0758814598147
2.434,-17.0900200031397
2.44,-17.1045568969319
2.446,-17.1194956769762
2.452,-17.1348394835787
2.458,-17.1505913682321
2.464,-17.1667544830509
2.47,-17.1833321987666
2.476,-17.2003281773969
2.482,-17.2177464145217
2.488,-17.2355912595421
2.494,-17.253867418322
2.5,-17.2725799400827
2.506,-17.2917341887177
2.512,-17.3113357974533
2.518,-17.3313906047819
2.524,-17.3519045687081
2.53,-17.3728836554836
2.536,-17.3943336981023
2.542,-17.41626021884
2.548,-17.4386682090004
2.554,-17.4615618577474
2.56,-17.4849442204141
2.566,-17.5088168149404
2.572,-17.533179133067
2.578,-17.5580280505472
2.584,-17.5833571178809
2.59,-17.6091557098733
2.596,-17.6354080086076
2.602,-17.6620917901537
2.608,-17.6891769804461
2.614,-17.7166239402271
2.62,-17.744381432752
2.626,-17.7723842211116
2.632,-17.8005502346609
2.638,-17.8287772363319
2.644,-17.8569389149273
2.65,-17.8848803194154
2.656,-17.9124125466682
2.662,-17.9393065913478
2.668,-17.9652862686693
2.674,-17.9900201302515
2.68,-18.0131123138908
2.686,-18.0340923047238
2.692,-18.0524036441046
2.698,-18.067391711202
2.704,-18.0782908295769
2.71,-18.0842111259661
2.716,-18.0841257992535
2.722,-18.0768597484903
2.728,-18.0610808563394
2.734,-18.035295611421
2.74,-17.9978511420587
2.746,-17.9469460596031
2.752,-17.8806526745756
2.758,-17.796953027003
2.764,-17.6937906237018
2.77,-17.5691386800872
2.776,-17.4210839734971
2.782,-17.2479232101605
2.788,-17.0482663415048
2.794,-16.8211389445784
2.8,-16.5660740225477
2.806,-16.2831823337205
2.812,-15.9731870183175
2.818,-15.6373810824255
2.824,-15.2770459297354
2.83,-14.9036247490655
2.836,-14.502177783891
2.842,-14.0894053837701
2.848,-13.6664294348651
2.854,-13.2371086392556
2.86,-12.8055531871045
2.866,-12.3759038296653
2.872,-11.9522116835522
2.878,-11.5383374400425
2.884,-11.1378590438532
2.89,-10.753986815304
2.896,-10.3894881273511
2.902,-10.0466253949404
2.908,-9.72711181892371
2.914,-9.43208896009476
2.92,-9.16212879886147
2.926,-8.91726070888423
2.932,-8.69702120694437
2.938,-8.50052199722653
2.944,-8.32653019375029
2.95,-8.17355396751644
2.956,-8.03992731815447
2.962,-7.92388992334179
2.968,-7.82379331289837
2.974,-7.73740096901344
2.98,-7.66352465994374
2.986,-7.60038785503142
2.992,-7.54652099280178
2.998,-7.50058365323867
3.004,-7.46136990035403
3.01,-7.42780663189664
3.016,-7.39894790980413
3.022,-7.37396675675147
3.028,-7.35214550299137
3.034,-7.33286548918777
3.04,-7.31559670436032
3.046,-7.29988775535834
3.052,-7.2853564217441
3.058,-7.27168094263351
3.064,-7.25859210408732
3.07,-7.24586614119745
3.076,-7.23331843271284
3.082,-7.22079794332418
3.088,-7.20818235585531
3.094,-7.19537382966876
3.1,-7.18229532036167
3.106,-7.16888739765662
3.112,-7.15510550208762
3.118,-7.14091758580444
3.124,-7.12630208799101
3.13,-7.11124620063338
3.136,-7.09574438543741
3.142,-7.07979710744073
3.148,-7.06340975521257
3.154,-7.04659172145731
3.16,-7.02935562133334
3.166,-7.01171662888509
3.172,-6.99369191469148
3.178,-6.9753001701925
3.184,-6.95656120620171
3.19,-6.93749561488267
3.196,-6.91812448599274
3.202,-6.89846916951167
3.208,-6.87855107789987
3.214,-6.85839152219993
3.22,-6.83801157702414
3.226,-6.81743197018193
3.232,-6.79667299330981
3.238,-6.77575443038729
3.244,-6.7546955014684
3.25,-6.73351481934027
3.256,-6.71210712903104
3.262,-6.69063414857445
3.268,-6.66910388452958
3.274,-6.6475255610723
3.28,-6.62590928607659
3.286,-6.60426576660279
3.292,-6.58260606950602
3.298,-6.56094142260194
3.304,-6.53928305179233
3.31,-6.5176420496908
3.316,-6.4960292715418
3.322,-6.47445525454958
3.328,-6.45293015709397
3.334,-6.43146371468226
3.34,-6.41006520985364
3.346,-6.38874345360193
3.352,-6.36750677620809
3.358,-6.34636302566989
3.364,-6.32531957218271
3.37,-6.30438331736112
3.376,-6.28356070709738
3.382,-6.26285774713263
3.388,-6.24228002057065
3.394,-6.22183270669574
3.4,-6.20152060056815
3.406,-6.18134813296467
3.412,-6.16131939031083
3.418,-6.14143813431751
3.424,-6.12170782109009
3.43,-6.10213161952448
3.436,-6.08271242884395
3.442,-6.06345289516419
3.448,-6.0443554270038
3.454,-6.02542220968407
3.46,-6.00665521858683
3.466,-5.98805623126271
3.472,-5.96962683840601
3.478,-5.95136845373481
3.484,-5.93328232283854
3.49,-5.9153695310773
3.496,-5.89763101063869
3.502,-5.8800675468774
3.508,-5.86267978407913
3.514,-5.84546823080264
3.52,-5.82843326496081
3.526,-5.81157513880187
3.532,-5.79489398394579
3.538,-5.77838981661657
3.544,-5.7620625431906
3.55,-5.74591196615347
3.556,-5.72993779052534
3.562,-5.71413963077961
3.568,-5.69851701824253
3.574,-5.68306940892669
3.58,-5.66779619171912
3.586,-5.65269669681882
3.592,-5.63777020429956
3.598,-5.62301595266244
3.604,-5.60843314724019
3.61,-5.5940209683203
3.616,-5.57977857886598
3.622,-5.56570513173169
3.628,-5.55179977629184
3.634,-5.53806166442447
3.64,-5.52448995581657
3.646,-5.51108382258073
3.652,-5.49784245319395
3.658,-5.48476505578757
3.664,-5.47185086083184
3.67,-5.45909912326937
3.676,-5.44650912415889
3.682,-5.43408017189424
3.688,-5.42181160306462
3.694,-5.40970278301993
3.7,-5.39775310620194
3.706,-5.38596199629672
3.712,-5.37432890625797
3.718,-5.36285331824485
3.724,-5.35153474351119
3.73,-5.34037272227701
3.736,-5.32936682360729
3.742,-5.31851664531774
3.748,-5.30782181392239
3.754,-5.29728198463391
3.76,-5.28689684142391
3.766,-5.27666609714756
3.772,-5.26658949373461
3.778,-5.2566668024468
3.784,-5.2468978242004
3.79,-5.23728238995146
3.796,-5.22782036114044
3.802,-5.2185116301926
3.808,-5.20935612107003
3.814,-5.20035378987119
3.82,-5.19150462547366
3.826,-5.18280865021598
3.832,-5.17426592061461
3.838,-5.16587652811204
3.844,-5.15764059985259
3.85,-5.14955829948232
3.856,-5.14162982796997
3.862,-5.13385542444587
3.868,-5.12623536705602
3.874,-5.1187699738289
3.88,-5.11145960355227
3.886,-5.10430465665797
3.892,-5.09730557611225
3.898,-5.09046284830976
3.904,-5.08377700396896
3.91,-5.0772486190272
3.916,-5.07087831553316
3.922,-5.06466676253514
3.928,-5.05861467696274
3.934,-5.05272282450028
3.94,-5.04699202044965
3.946,-5.04142313058058
3.952,-5.03601707196602
3.958,-5.03077481380017
3.964,-5.02569737819703
3.97,-5.02078584096639
3.976,-5.01604133236494
3.982,-5.01146503781933
3.988,-5.00705819861817
3.994,-5.00282211256972
4,-4.99875813462183
4.006,-4.99486767744034
4.012,-4.99115221194233
4.018,-4.98761326777977
4.024,-4.98425243376965
4.03,-4.98107135826564
4.036,-4.97807174946686
4.042,-4.97525537565839
4.048,-4.97262406537851
4.054,-4.97017970750691
4.06,-4.96792425126818
4.066,-4.96585970614454
4.072,-4.9639881416914
4.078,-4.96231168724926
4.084,-4.9608325315451
4.09,-4.95955292217615
4.096,-4.95847516496883
4.102,-4.95760162320515
4.108,-4.95693471670898
4.114,-4.95647692078403
4.12,-4.95623076499559
4.126,-4.95619883178739
4.132,-4.95638375492541
4.138,-4.95678821775976
4.144,-4.95741495129604
4.15,-4.95826673206729
4.156,-4.95934637979789
4.162,-4.96065675485035
4.168,-4.96220075544641
4.174,-4.96398131465373
4.18,-4.96600139712968
4.186,-4.96826399561381
4.192,-4.97077212716126
4.198,-4.97352882910903
4.204,-4.97653715476822
4.21,-4.97980016883515
4.216,-4.98332094251531
4.222,-4.98710254835452
4.228,-4.99114805477248
4.234,-4.99546052029468
4.24,-5.0000429874797
4.246,-5.00489847653989
4.252,-5.01002997865445
4.258,-5.0154404489755
4.264,-5.02113279932869
4.27,-5.02710989061178
4.276,-5.03337452489585
4.282,-5.03992943723579
4.288,-5.04677728719834
4.294,-5.05392065011794
4.3,-5.06136200809271
4.306,-5.06910374073497
4.312,-5.07714811569276
4.318,-5.0854972789616
4.324,-5.09415324500744
4.33,-5.10311788672476
4.336,-5.11239292525598
4.342,-5.1219799197009
4.348,-5.13188025674748
4.354,-5.14209514025784
4.36,-5.15262558084579
4.366,-5.16347238548478
4.372,-5.17463614718751
4.378,-5.18611723480088
4.384,-5.19791578296191
4.39,-5.21003168226287
4.396,-5.22246456967498
4.402,-5.23521381928255
4.408,-5.24827853338032
4.414,-5.26165753398824
4.42,-5.27534935483877
4.426,-5.28935223389244
4.432,-5.30366410643753
4.438,-5.31828259882991
4.444,-5.3332050229281
4.45,-5.34842837127822
4.456,-5.36394931310169
4.462,-5.37976419113698
4.468,-5.39586901938434
4.474,-5.4122594817997
4.48,-5.42893093198064
4.486,-5.44587839388373
4.492,-5.46309656360838
4.498,-5.4805798122775
4.504,-5.49832219004052
4.51,-5.51631743121861
4.516,-5.53455896060629
4.522,-5.55303990093712
4.528,-5.57175308151511
4.534,-5.59069104800629
4.54,-5.60984607337816
4.546,-5.62921016996764
4.552,-5.64877510265079
4.558,-5.66853240308046
4.564,-5.68847338495077
4.57,-5.70858916024034
4.576,-5.72887065637908
4.582,-5.74930863427692
4.588,-5.76989370714633
4.594,-5.79061636004451
4.6,-5.81146697005573
4.606,-5.83243582702905
4.612,-5.85351315478232
4.618,-5.87468913267941
4.624,-5.89595391748428
4.63,-5.91729766539319
4.636,-5.93871055414413
4.642,-5.96018280510179
4.648,-5.98170470521573
4.654,-6.0032666287499
4.66,-6.0248590586828
4.666,-6.04647260767921
4.672,-6.06809803853726
4.678,-6.08972628401753
4.684,-6.1113484659649
4.69,-6.13295591363829
4.696,-6.15454018116852
4.702,-6.17609306406971
4.708,-6.19760661473607
4.714,-6.21907315686173
4.72,-6.24048529872829
4.726,-6.26183594531117
4.732,-6.28311830916341
4.738,-6.30432592004201
4.744,-6.32545263324965
4.75,-6.34649263667137
4.756,-6.36744045649275
4.762,-6.38829096159342
4.768,-6.40903936661568
4.774,-6.42968123371506
4.78,-6.45021247300526
4.786,-6.47062934171579
4.792,-6.49092844208607
4.798,-6.51110671802444
4.804,-6.53116145056545
4.81,-6.55109025216233
4.816,-6.57089105985584
4.822,-6.5905621273633
4.828,-6.61010201613482
4.834,-6.62950958542567
4.84,-6.64878398143618
4.846,-6.66792462557152
4.852,-6.68693120187524
4.858,-6.70580364369123
4.864,-6.72454211960914
4.87,-6.74314701874873
4.876,-6.76161893543844
4.882,-6.77995865334349
4.888,-6.79816712909833
4.894,-6.81624547549781
4.9,-6.83419494430105
4.906,-6.8520169087012
4.912,-6.86971284551394
4.918,-6.88728431713667
4.924,-6.90473295333046
4.93,-6.92206043287573
4.936,-6.93926846515307
4.942,-6.95635877170004
4.948,-6.97333306779517
4.954,-6.99019304412054
4.96,-7.00694034855498
4.966,-7.02357656815036
4.972,-7.04010321134471
4.978,-7.05652169046688
4.984,-7.07283330458887
4.99,-7.08903922278336
4.996,-7.10514046784612
5.002,-7.12113790054421
5.008,-7.13703220445347
5.014,-7.15282387145032
5.02,-7.16851318792535
5.026,-7.18410022178776
5.032,-7.19958481033191
5.038,-7.2149665490389
5.044,-7.23024478138714
5.05,-7.24541858974769
5.056,-7.26048678744008
5.062,-7.27544791202504
5.068,-7.29030021990979
5.074,-7.30504168234058
5.08,-7.31966998285522
5.086,-7.33418251626551
5.092,-7.34857638923568
5.098,-7.36284842251839
5.104,-7.37699515490377
5.11,-7.3910128489299
5.116,-7.40489749839531
5.122,-7.41864483770414
5.128,-7.43225035306438
5.134,-7.44570929554772
5.14,-7.45901669600635
5.146,-7.47216738182835
5.152,-7.48515599549815
5.158,-7.49797701491252
5.164,-7.51062477538642
5.17,-7.5230934932653
5.176,-7.53537729104387
5.182,-7.54747022387298
5.188,-7.55936630731976
5.194,-7.5710595462286
5.2,-7.58254396451497
5.206,-7.59381363570839
5.212,-7.6048627140475
5.218,-7.61568546591752
5.224,-7.62627630141033
5.23,-7.6366298057788
5.236,-7.64674077055136
5.242,-7.65660422406925
5.248,-7.66621546120845
5.254,-7.67557007205024
5.26,-7.68466396926971
5.266,-7.69349341401928
5.272,-7.70205504009566
5.278,-7.71034587619179
5.284,-7.71836336605223
5.29,-7.72610538636895
5.296,-7.73357026227542
5.302,-7.74075678032008
5.308,-7.74766419882427
5.314,-7.75429225555561
5.32,-7.76064117267409
5.326,-7.76671165893485
5.332,-7.7725049091584
5.338,-7.77802260100528
5.344,-7.78326688911767
5.35,-7.78824039671446
5.356,-7.79294620474923
5.362,-7.79738783876125
5.368,-7.80156925356822
5.374,-7.80549481596582
5.38,-7.80916928561312
5.386,-7.81259779429385
5.392,-7.81578582375213
5.398,-7.81873918230712
5.404,-7.82146398045407
5.41,-7.82396660566002
5.416,-7.82625369656017
5.422,-7.82833211675732
5.428,-7.83020892841992
5.434,-7.83189136586658
5.44,-7.83338680931484
5.446,-7.83470275896094
5.452,-7.83584680954495
5.458,-7.83682662554226
5.464,-7.83764991710875
5.47,-7.83832441689232
5.476,-7.83885785780935
5.482,-7.83925795186969
5.488,-7.83953237011985
5.494,-7.83968872376003
5.5,-7.83973454647702
5.506,-7.84003813655077
5.512,-7.84018790759831
5.518,-7.84018467135005
5.524,-7.84002932840281
5.53,-7.83972286657093
5.536,-7.83926635910008
5.542,-7.83866096274782
5.548,-7.83790791573537
5.554,-7.83700853557539
5.56,-7.83596421678064
5.566,-7.83477642845888
5.572,-7.83344671179955
5.578,-7.83197667745772
5.584,-7.83036800284149
5.59,-7.82862242930855
5.596,-7.8267417592784
5.602,-7.82472785326634
5.608,-7.82258262684568
5.614,-7.82030804754467
5.62,-7.81790613168462
5.626,-7.81537894116588
5.632,-7.81272858020817
5.638,-7.80995719205182
5.644,-7.80706695562663
5.65,-7.80406008219472
5.656,-7.80093881197396
5.662,-7.79770541074845
5.668,-7.79436216647234
5.674,-7.79091138587335
5.68,-7.78735539106238
5.686,-7.78369651615514
5.692,-7.77993710391218
5.698,-7.77607950240319
5.704,-7.77212606170174
5.71,-7.76807913061636
5.716,-7.76394105346388
5.722,-7.75971416689107
5.728,-7.7554007967505
5.734,-7.75100325503661
5.74,-7.74652383688818
5.746,-7.74196481766331
5.752,-7.73732845009327
5.758,-7.73261696152186
5.764,-7.72783255123701
5.77,-7.72297738790171
5.776,-7.71805360709179
5.782,-7.71306330894842
5.788,-7.70800855595361
5.794,-7.70289137083787
5.8,-7.6977137346294
5.806,-7.69247758485531
5.812,-7.68718481390601
5.818,-7.68183726757478
5.824,-7.67643674378581
5.83,-7.6709849915248
5.836,-7.66548370998775
5.842,-7.65993454796475
5.848,-7.6543391034771
5.854,-7.64869892368774
5.86,-7.64301550510643
5.866,-7.63729029411329
5.872,-7.63152468782593
5.878,-7.62572003533731
5.884,-7.61987763935395
5.89,-7.61399875826574
5.896,-7.60808460868104
5.902,-7.6021363684627
5.908,-7.59615518030307
5.914,-7.5901421558774
5.92,-7.58409838061769
5.926,-7.57802491914989
5.932,-7.5719228214392
5.938,-7.56579312968874
5.944,-7.55963688603738
5.95,-7.5534551411022
5.956,-7.54724896340977
5.962,-7.54101944975855
5.968,-7.53476773655132
5.974,-7.52849501213176
5.98,-7.52220253015341
5.986,-7.51589162400077
5.992,-7.50956372227229
5.998,-7.5032203653226
6.004,-7.49686322284591
6.01,-7.49049411246486
6.016,-7.48411501926781
6.022,-7.47772811621342
6.028,-7.47133578529363
6.034,-7.46494063931499
6.04,-7.45854554412371
6.046,-7.4521536410621
6.052,-7.44576836940313
