"Freq [GHz]","dB(St(1,8)) []"
1,-29.4189821466116
1.006,-29.4258225202375
1.012,-29.4328949035836
1.018,-29.4401981431697
1.024,-29.447731152487
1.03,-29.4554929104257
1.036,-29.4634824597549
1.042,-29.4716989056516
1.048,-29.4801414142773
1.054,-29.4888092113998
1.06,-29.4977015810587
1.066,-29.5068178642711
1.072,-29.5161574577781
1.078,-29.5257198128272
1.084,-29.535504433992
1.09,-29.5455108780243
1.096,-29.5557387527393
1.102,-29.5661877159305
1.108,-29.5768574743144
1.114,-29.5877477825008
1.12,-29.5988584419901
1.126,-29.6101893001935
1.132,-29.621740249476
1.138,-29.6335112262202
1.144,-29.6455022099089
1.15,-29.6577132222263
1.156,-29.6701443261746
1.162,-29.6827956252061
1.168,-29.6956672623679
1.174,-29.7087594194587
1.18,-29.7220723161962
1.186,-29.7356062093925
1.192,-29.7493613921378
1.198,-29.7633381929887
1.204,-29.7775369751619
1.21,-29.7919581357301
1.216,-29.8066021048187
1.222,-29.8214693448031
1.228,-29.8365603495029
1.234,-29.851875643373
1.24,-29.8674157806896
1.246,-29.8831813447291
1.252,-29.8991729469376
1.258,-29.9153912260912
1.264,-29.9318368474425
1.27,-29.9485105018546
1.276,-29.9654129049175
1.282,-29.9825447960474
1.288,-29.9999069375654
1.294,-30.0175001137547
1.3,-30.0353251298926
1.306,-30.0533828112565
1.312,-30.071674002101
1.318,-30.0901995646035
1.324,-30.1089603777761
1.33,-30.1279573363417
1.336,-30.1471913495699
1.342,-30.1666633400727
1.348,-30.1863742425545
1.354,-30.2063250025146
1.36,-30.2265165748995
1.366,-30.2469499227007
1.372,-30.2676260154954
1.378,-30.2885458279268
1.384,-30.3097103381189
1.39,-30.3311205260244
1.396,-30.3527773716991
1.402,-30.3746818535011
1.408,-30.3968349462084
1.414,-30.4192376190524
1.42,-30.4418908336611
1.426,-30.4647955419075
1.432,-30.4879526836591
1.438,-30.5113631844219
1.444,-30.5350279528744
1.45,-30.5589478782849
1.456,-30.5831238278078
1.462,-30.6075566436506
1.468,-30.6322471401065
1.474,-30.657196100446
1.48,-30.6824042736599
1.486,-30.707872371046
1.492,-30.7336010626333
1.498,-30.7595909734351
1.504,-30.7858426795221
1.51,-30.8123567039086
1.516,-30.8391335122416
1.522,-30.8661735082847
1.528,-30.8934770291865
1.534,-30.9210443405238
1.54,-30.9488756311109
1.546,-30.9769710075622
1.552,-31.0053304885988
1.558,-31.0339539990876
1.564,-31.0628413638018
1.57,-31.0919923008893
1.576,-31.1214064150392
1.582,-31.1510831903317
1.588,-31.1810219827597
1.594,-31.2112220124093
1.6,-31.2416823552839
1.606,-31.2724019347604
1.612,-31.303379512662
1.618,-31.3346136799342
1.624,-31.3661028469094
1.63,-31.3978452331449
1.636,-31.4298388568212
1.642,-31.4620815236851
1.648,-31.4945708155222
1.654,-31.5273040781464
1.66,-31.5602784088899
1.666,-31.5934906435814
1.672,-31.6269373429975
1.678,-31.6606147787755
1.684,-31.6945189187738
1.69,-31.7286454118696
1.696,-31.762989572181
1.702,-31.7975463627071
1.708,-31.832310378374
1.714,-31.8672758284829
1.72,-31.9024365185536
1.726,-31.9377858315612
1.732,-31.9733167085648
1.738,-32.0090216287305
1.744,-32.0448925887533
1.75,-32.0809210816872
1.756,-32.1170980751931
1.762,-32.1534139892233
1.768,-32.1898586731621
1.774,-32.2264213824477
1.78,-32.2630907547075
1.786,-32.2998547854448
1.792,-32.3367008033201
1.798,-32.3736154450788
1.804,-32.4105846301852
1.81,-32.4475935352309
1.816,-32.4846265681938
1.822,-32.5216673426374
1.828,-32.5586986519452
1.834,-32.5957024437031
1.84,-32.6326597943477
1.846,-32.6695508842182
1.852,-32.7063549731566
1.858,-32.7430503768201
1.864,-32.7796144438811
1.87,-32.8160235343068
1.876,-32.8522529989254
1.882,-32.8882771605022
1.888,-32.9240692965654
1.894,-32.9596016242365
1.9,-32.9948452873368
1.906,-33.029770346058
1.912,-33.0643457694991
1.918,-33.0985394313855
1.924,-33.1323181093015
1.93,-33.1656474877764
1.936,-33.1984921655765
1.942,-33.2308156675613
1.948,-33.262580461468
1.954,-33.2937479799893
1.96,-33.3242786485091
1.966,-33.3541319188539
1.972,-33.3832663094065
1.978,-33.411639451916
1.984,-33.439208145314
1.99,-33.4659284168224
1.996,-33.4917555906037
2.002,-33.5166443641674
2.008,-33.5405488926944
2.014,-33.5634228813948
2.02,-33.5852196859461
2.026,-33.6058924209971
2.032,-33.6253940766438
2.038,-33.6436776427044
2.044,-33.6606962405326
2.05,-33.6764032620161
2.056,-33.6907525153099
2.062,-33.703698376756
2.068,-33.7151959483372
2.074,-33.7252012199121
2.08,-33.733671235379
2.086,-33.740564261816
2.092,-33.7458399605566
2.098,-33.7494595590733
2.104,-33.7513860224647
2.11,-33.7515842232813
2.116,-33.7500211083707
2.122,-33.7466658613899
2.128,-33.7414900596092
2.134,-33.7344678236374
2.14,-33.7255759587083
2.146,-33.7147940862132
2.152,-33.7021047642165
2.158,-33.6874935957713
2.164,-33.6709493239499
2.17,-33.6524639126145
2.176,-33.6320326120898
2.182,-33.6096540090416
2.188,-33.5853300600241
2.194,-33.5590661083291
2.2,-33.5308708839392
2.206,-33.5007564865716
2.212,-33.4687383519705
2.218,-33.4348352017871
2.224,-33.3990689775505
2.23,-33.3614647593975
2.236,-33.322050670372
2.242,-33.2808577672456
2.248,-33.2379199189221
2.254,-33.1932736735941
2.26,-33.1469581158973
2.266,-33.0990147153715
2.272,-33.0494871675784
2.278,-32.9984212292466
2.284,-32.9458645488175
2.29,-32.8918664937514
2.296,-32.8364779759166
2.302,-32.7797512763406
2.308,-32.7217398705378
2.314,-32.6624982555554
2.32,-32.602081779798
2.326,-32.540546476599
2.332,-32.4779489024108
2.338,-32.4143459803891
2.344,-32.3497948500411
2.35,-32.2843527235097
2.356,-32.2180767489648
2.362,-32.1510238814745
2.368,-32.0832507616391
2.374,-32.0148136021806
2.38,-31.9457680826006
2.386,-31.8761692519414
2.392,-31.8060714396191
2.398,-31.7355281742353
2.404,-31.6645921102169
2.41,-31.5933149620907
2.416,-31.5217474461551
2.422,-31.4499392292795
2.428,-31.3779388845342
2.434,-31.3057938533327
2.44,-31.2335504137509
2.446,-31.1612536546793
2.452,-31.0889474554565
2.458,-31.0166744706314
2.464,-30.9444761195013
2.47,-30.872392580081
2.476,-30.8004627871633
2.482,-30.7287244341408
2.488,-30.6572139782734
2.494,-30.5859666490961
2.5,-30.5150164596788
2.506,-30.4443962204631
2.512,-30.3741375554188
2.518,-30.3042709202791
2.524,-30.2348256226276
2.53,-30.165829843632
2.536,-30.0973106612301
2.542,-30.0292940745931
2.548,-29.9618050297074
2.554,-29.894867445929
2.56,-29.8285042433811
2.566,-29.7627373710791
2.572,-29.6975878356809
2.578,-29.6330757307733
2.584,-29.5692202666159
2.59,-29.5060398002793
2.596,-29.4435518661199
2.602,-29.3817732065488
2.608,-29.3207198030598
2.614,-29.2604069074888
2.62,-29.2008490734894
2.626,-29.1420601882135
2.632,-29.084053504197
2.638,-29.0268416714528
2.644,-28.970436769786
2.65,-28.9148503413462
2.656,-28.8600934234431
2.662,-28.8061765816526
2.668,-28.7531099432497
2.674,-28.7009032310062
2.68,-28.6495657973972
2.686,-28.5991066592663
2.692,-28.5495345330008
2.698,-28.5008578702736
2.704,-28.4530848944121
2.71,-28.406223637459
2.716,-28.360281977989
2.722,-28.3152676797531
2.728,-28.2711884312224
2.734,-28.2280518861023
2.74,-28.1858657048963
2.746,-28.1446375975903
2.752,-28.1043753675367
2.758,-28.0650869566091
2.764,-28.0267804917009
2.77,-27.9894643326343
2.776,-27.9531471215403
2.782,-27.9178378337644
2.788,-27.8835458303391
2.794,-27.8502809120517
2.8,-27.8180533751185
2.806,-27.7868740684523
2.812,-27.7567544524856
2.818,-27.7277066594737
2.824,-27.699743555165
2.83,-27.6728788016709
2.836,-27.6471269213121
2.842,-27.622503361142
2.848,-27.5990245577628
2.854,-27.5767080019505
2.86,-27.5555723024796
2.866,-27.5356372484031
2.872,-27.5169238688727
2.878,-27.4994544893948
2.884,-27.4832527831969
2.89,-27.4683438161184
2.896,-27.4547540831505
2.902,-27.4425115344126
2.908,-27.4316455879768
2.914,-27.422187126525
2.92,-27.4141684743517
2.926,-27.4076233507033
2.932,-27.4025867948765
2.938,-27.3990950578855
2.944,-27.3971854548646
2.95,-27.3968961717001
2.956,-27.3982660187154
2.962,-27.4013341235838
2.968,-27.406139555049
2.974,-27.4127208685478
2.98,-27.4211155645051
2.986,-27.4313594499867
2.992,-27.4434858946392
2.998,-27.4575249725281
3.004,-27.4735024827289
3.01,-27.4914388434706
3.016,-27.5113478574265
3.022,-27.5332353495527
3.028,-27.5570976838242
3.034,-27.5829201714461
3.04,-27.610675390692
3.046,-27.6403214474478
3.052,-27.6718002157143
3.058,-27.7050356085121
3.064,-27.7399319414095
3.07,-27.7763724626407
3.076,-27.8142181346497
3.082,-27.8533067607891
3.088,-27.8934525565614
3.094,-27.9344462657828
3.1,-27.9760559169554
3.106,-28.0180283026502
3.112,-28.0600912439022
3.118,-28.1019566721128
3.124,-28.1433245231956
3.13,-28.1838873941017
3.136,-28.2233358629153
3.142,-28.2613643239474
3.148,-28.2976771429914
3.154,-28.3319948998693
3.16,-28.3640604601475
3.166,-28.3936446092063
3.172,-28.4205509920444
3.178,-28.4446201317304
3.184,-28.4657323465674
3.19,-28.4838094470775
3.196,-28.4988151634379
3.202,-28.5107543256984
3.208,-28.5196708865311
3.214,-28.525644933717
3.22,-28.5287888827749
3.226,-28.5292430666537
3.232,-28.5271709487664
3.238,-28.5227541791588
3.244,-28.516187693959
3.25,-28.507675028976
3.256,-28.4974239832419
3.262,-28.4856427310545
3.268,-28.4725364447963
3.274,-28.4583044578409
3.28,-28.4431379687713
3.286,-28.4272182657203
3.292,-28.4107154330593
3.298,-28.3937874915663
3.304,-28.3765799169525
3.31,-28.3592254793787
3.316,-28.3418443474668
3.322,-28.3245444034603
3.328,-28.3074217208431
3.334,-28.2905611612533
3.34,-28.2740370534226
3.346,-28.2579139227388
3.352,-28.2422472456158
3.358,-28.2270842079734
3.364,-28.212464451694
3.37,-28.1984207968825
3.376,-28.1849799311239
3.382,-28.1721630597321
3.388,-28.1599865132664
3.394,-28.1484623104122
3.4,-28.1375986757455
3.406,-28.1274005129808
3.412,-28.1178698351011
3.418,-28.1090061533299
3.424,-28.1008068272837
3.43,-28.0932673788681
3.436,-28.0863817725928
3.442,-28.0801426650018
3.448,-28.074541625872
3.454,-28.0695693337438
3.46,-28.0652157482203
3.466,-28.0614702613332
3.472,-28.058321830111
3.478,-28.0557590923285
3.484,-28.0537704672523
3.49,-28.0523442430402
3.496,-28.0514686523014
3.502,-28.0511319371798
3.508,-28.0513224051884
3.514,-28.0520284768998
3.52,-28.0532387264783
3.526,-28.0549419159397
3.532,-28.0571270239238
3.538,-28.0597832696788
3.544,-28.0629001328806
3.55,-28.0664673698347
3.556,-28.070475026549
3.562,-28.0749134491054
3.568,-28.0797732917096
3.574,-28.085045522751
3.58,-28.0907214291671
3.586,-28.096792619366
3.592,-28.1032510249349
3.598,-28.1100889013288
3.604,-28.1172988277111
3.61,-28.1248737060963
3.616,-28.1328067599236
3.622,-28.1410915321728
3.628,-28.1497218831223
3.634,-28.1586919878292
3.64,-28.1679963334068
3.646,-28.1776297161574
3.652,-28.1875872386153
3.658,-28.197864306541
3.664,-28.2084566259066
3.67,-28.219360199899
3.676,-28.2305713259691
3.682,-28.2420865929439
3.688,-28.2539028782195
3.694,-28.2660173450442
3.7,-28.2784274399015
3.706,-28.2911308899974
3.712,-28.3041257008541
3.718,-28.3174101540107
3.724,-28.3309828048279
3.73,-28.3448424803923
3.736,-28.3589882775155
3.742,-28.3734195608181
3.748,-28.388135960892
3.754,-28.4031373725277
3.76,-28.4184239529964
3.766,-28.4339961203738
3.772,-28.44985455189
3.778,-28.4660001822913
3.784,-28.4824342021973
3.79,-28.4991580564356
3.796,-28.5161734423356
3.802,-28.5334823079627
3.808,-28.5510868502722
3.814,-28.5689895131613
3.82,-28.587192985398
3.826,-28.6057001984043
3.832,-28.6245143238674
3.838,-28.6436387711579
3.844,-28.6630771845263
3.85,-28.6828334400531
3.856,-28.702911642325
3.862,-28.7233161208091
3.868,-28.7440514258956
3.874,-28.7651223245807
3.88,-28.7865337957585
3.886,-28.8082910250903
3.892,-28.830399399421
3.898,-28.8528645007081
3.904,-28.8756920994322
3.91,-28.8988881474533
3.916,-28.9224587702797
3.922,-28.9464102587148
3.928,-28.9707490598453
3.934,-28.9954817673368
3.94,-29.0206151109988
3.946,-29.0461559455844
3.952,-29.0721112387873
3.958,-29.0984880583993
3.964,-29.1252935585927
3.97,-29.1525349652885
3.976,-29.180219560577
3.982,-29.2083546661507
3.988,-29.2369476257164
3.994,-29.2660057863484
4,-29.2955364787479
4.006,-29.3255469963739
4.012,-29.35604457341
4.018,-29.3870363615339
4.024,-29.4185294054549
4.03,-29.4505306171884
4.036,-29.4830467490331
4.042,-29.5160843652204
4.048,-29.5496498122057
4.054,-29.58374918757
4.06,-29.6183883075036
4.066,-29.6535726728421
4.072,-29.6893074336278
4.078,-29.7255973521668
4.084,-29.7624467645573
4.09,-29.7998595406602
4.096,-29.8378390424884
4.102,-29.876388080987
4.108,-29.9155088711818
4.114,-29.9552029856708
4.12,-29.995471306436
4.126,-30.0363139749529
4.132,-30.0777303405777
4.138,-30.1197189071933
4.144,-30.1622772780981
4.15,-30.2054020991237
4.156,-30.2490889999757
4.162,-30.2933325337928
4.168,-30.3381261149302
4.174,-30.383461954983
4.18,-30.4293309970751
4.186,-30.475722848456
4.192,-30.5226257114685
4.198,-30.5700263129674
4.204,-30.6179098323072
4.21,-30.6662598280405
4.216,-30.7150581635183
4.222,-30.7642849316278
4.228,-30.8139183789621
4.234,-30.8639348297848
4.24,-30.9143086102297
4.246,-30.9650119732706
4.252,-31.0160150250952
4.258,-31.0672856536429
4.264,-31.1187894601946
4.27,-31.1704896950581
4.276,-31.2223471985551
4.282,-31.2743203487015
4.288,-31.3263650171674
4.294,-31.3784345353193
4.3,-31.4304796723627
4.306,-31.4824486278402
4.312,-31.534287040967
4.318,-31.5859380195172
4.324,-31.6373421911857
4.33,-31.6884377805465
4.336,-31.7391607148793
4.342,-31.7894447622445
4.348,-31.8392217052232
4.354,-31.8884215536903
4.36,-31.936972799833
4.366,-31.9848027183449
4.372,-32.0318377142933
4.378,-32.0780037205574
4.384,-32.1232266459474
4.39,-32.1674328741284
4.396,-32.2105498122831
4.402,-32.2525064870482
4.408,-32.2932341836786
4.414,-32.3326671226395
4.42,-32.3707431659544
4.426,-32.407404543694
4.432,-32.4425985890551
4.438,-32.4762784686308
4.444,-32.5084038928199
4.45,-32.5389417899647
4.456,-32.567866926861
4.462,-32.5951624578497
4.468,-32.6208203848761
4.474,-32.6448419117634
4.48,-32.6672376775287
4.486,-32.6880278558902
4.492,-32.7072421111246
4.498,-32.7249194040671
4.504,-32.7411076461687
4.51,-32.755863203977
4.516,-32.7692502609897
4.522,-32.7813400483355
4.528,-32.7922099599322
4.534,-32.8019425714605
4.54,-32.8106245854779
4.546,-32.8183457271303
4.552,-32.8251976161153
4.558,-32.831272640744
4.564,-32.8366628591744
4.57,-32.8414589511987
4.576,-32.8457492414892
4.582,-32.8496188120884
4.588,-32.8531487183537
4.594,-32.8564153187251
4.6,-32.8594897247633
4.606,-32.8624373740908
4.612,-32.8653177252994
4.618,-32.8681840707084
4.624,-32.871083460136
4.63,-32.874056726658
4.636,-32.8771386036858
4.642,-32.8803579215925
4.648,-32.8837378715261
4.654,-32.8872963239161
4.66,-32.8910461894487
4.666,-32.8949958108716
4.672,-32.8991493748415
4.678,-32.9035073340473
4.684,-32.9080668309899
4.69,-32.9128221159965
4.696,-32.9177649532546
4.702,-32.922885009827
4.708,-32.9281702237136
4.714,-32.9336071480507
4.72,-32.9391812694546
4.726,-32.9448772993244
4.732,-32.950679437613
4.738,-32.95657160916
4.744,-32.9625376731558
4.75,-32.9685616066868
4.756,-32.9746276636007
4.762,-32.9807205101447
4.768,-32.98682533897
4.774,-32.9929279631834
4.78,-32.9990148921622
4.786,-33.0050733908448
4.792,-33.011091524177
4.798,-33.0170581883319
4.804,-33.0229631302469
4.81,-33.0287969569304
4.816,-33.0345511358921
4.822,-33.0402179879489
4.828,-33.0457906735537
4.834,-33.0512631736925
4.84,-33.0566302662908
4.846,-33.0618874989771
4.852,-33.0670311589581
4.858,-33.0720582406725
4.864,-33.0769664118131
4.87,-33.0817539782286
4.876,-33.0864198481543
4.882,-33.0909634961513
4.888,-33.0953849270877
4.894,-33.099684640435
4.9,-33.1038635951147
4.906,-33.1079231750879
4.912,-33.1118651558452
4.918,-33.1156916719204
4.924,-33.1194051855307
4.93,-33.123008456414
4.936,-33.1265045129191
4.942,-33.1298966243839
4.948,-33.1331882748226
4.954,-33.136383137928
4.96,-33.1394850533867
4.966,-33.1424980044922
4.972,-33.1454260970381
4.978,-33.1482735394603
4.984,-33.1510446242004
4.99,-33.1537437102509
4.996,-33.1563752068438
5.002,-33.1589435582423
5.008,-33.1614532295907
5.014,-33.1639086937793
5.02,-33.1663144192788
5.026,-33.1686748588992
5.032,-33.1709944394305
5.038,-33.1732775521177
5.044,-33.1755285439297
5.05,-33.1777517095774
5.056,-33.1799512842421
5.062,-33.1821314369713
5.068,-33.184296264706
5.074,-33.1864497868998
5.08,-33.1885959406956
5.086,-33.1907385766245
5.092,-33.1928814547954
5.098,-33.1950282415411
5.104,-33.1971825064945
5.11,-33.1993477200641
5.116,-33.2015272512824
5.122,-33.2037243660017
5.128,-33.2059422254131
5.134,-33.2081838848657
5.14,-33.2104522929639
5.146,-33.2127502909234
5.152,-33.2150806121657
5.158,-33.217445882133
5.164,-33.2198486183078
5.17,-33.2222912304187
5.176,-33.2247760208206
5.182,-33.2273051850318
5.188,-33.2298808124183
5.194,-33.2325048870087
5.2,-33.2351792884335
5.206,-33.2379057929732
5.212,-33.2406860747071
5.218,-33.2435217067542
5.224,-33.2464141625959
5.23,-33.2493648174731
5.236,-33.2523749498502
5.242,-33.2554457429385
5.248,-33.2585782862719
5.254,-33.2617735773315
5.26,-33.2650325232086
5.266,-33.2683559423059
5.272,-33.271744566069
5.278,-33.2751990407441
5.284,-33.2787199291577
5.29,-33.2823077125163
5.296,-33.285962792219
5.302,-33.2896854916831
5.308,-33.2934760581777
5.314,-33.2973346646619
5.32,-33.3012614116286
5.326,-33.3052563289459
5.332,-33.3093193776991
5.338,-33.3134504520286
5.344,-33.3176493809619
5.35,-33.3219159302388
5.356,-33.3262498041282
5.362,-33.3306506472338
5.368,-33.3351180462894
5.374,-33.3396515319409
5.38,-33.3442505805151
5.386,-33.3489146157723
5.392,-33.353643010646
5.398,-33.3584350889628
5.404,-33.3632901271477
5.41,-33.3682073559096
5.416,-33.3731859619102
5.422,-33.3782250894114
5.428,-33.383323841906
5.434,-33.3884812837246
5.44,-33.3936964416267
5.446,-33.3989683063663
5.452,-33.4042958342401
5.458,-33.4096779486118
5.464,-33.4151135414161
5.47,-33.4206014746402
5.476,-33.4261405817839
5.482,-33.4317296692962
5.488,-33.4373675179906
5.494,-33.4430528844377
5.5,-33.4487845023348
5.506,-33.4401799620691
5.512,-33.432239741242
5.518,-33.4249722221929
5.524,-33.4183854131067
5.53,-33.4124869279832
5.536,-33.4072839668257
5.542,-33.4027832961108
5.548,-33.398991229601
5.554,-33.3959136095621
5.56,-33.3935557884483
5.566,-33.3919226111159
5.572,-33.3910183976273
5.578,-33.3908469267034
5.584,-33.3914114198851
5.59,-33.3927145264577
5.596,-33.3947583091937
5.602,-33.3975442309652
5.608,-33.4010731422734
5.614,-33.4053452697429
5.62,-33.4103602056189
5.626,-33.4161168983094
5.632,-33.4226136440026
5.638,-33.4298480793916
5.644,-33.4378171755306
5.65,-33.4465172328426
5.656,-33.4559438772964
5.662,-33.4660920577616
5.668,-33.4769560445492
5.674,-33.4885294291395
5.68,-33.5008051250922
5.686,-33.5137753701332
5.692,-33.527431729402
5.698,-33.5417650998461
5.704,-33.5567657157376
5.71,-33.5724231552895
5.716,-33.5887263483396
5.722,-33.6056635850707
5.728,-33.6232225257315
5.734,-33.6413902113172
5.74,-33.6601530751698
5.746,-33.6794969554543
5.752,-33.6994071084639
5.758,-33.719868222709
5.764,-33.7408644337396
5.77,-33.7623793396542
5.776,-33.784396017245
5.782,-33.8068970387298
5.788,-33.8298644890234
5.794,-33.8532799834983
5.8,-33.8771246861899
5.806,-33.9013793283987
5.812,-33.9260242276471
5.818,-33.9510393069476
5.824,-33.9764041143438
5.83,-34.0020978426858
5.836,-34.0280993496057
5.842,-34.0543871776603
5.848,-34.080939574614
5.854,-34.1077345138324
5.86,-34.134749714766
5.866,-34.1619626635029
5.872,-34.1893506333733
5.878,-34.2168907055922
5.884,-34.244559789929
5.89,-34.2723346453963
5.896,-34.3001919009528
5.902,-34.3281080762173
5.908,-34.3560596021947
5.914,-34.3840228420163
5.92,-34.4119741116985
5.926,-34.4398897009283
5.932,-34.4677458938827
5.938,-34.4955189900923
5.944,-34.5231853253619
5.95,-34.5507212927583
5.956,-34.5781033636808
5.962,-34.6053081090267
5.968,-34.632312220465
5.974,-34.6590925318342
5.98,-34.6856260406755
5.986,-34.7118899299135
5.992,-34.7378615896989
5.998,-34.7635186394191
6.004,-34.7888389498883
6.01,-34.8138006657229
6.016,-34.8383822279051
6.022,-34.8625623965386
6.028,-34.8863202737948
6.034,-34.9096353270441
6.04,-34.9324874121686
6.046,-34.9548567970419
6.052,-34.9767241851656
