"Freq [GHz]","dB(St(1,1)) []"
1,-11.4405585443849
1.006,-11.0974012119202
1.012,-10.7979651222632
1.018,-10.5384367012289
1.024,-10.315330476175
1.03,-10.125452287541
1.036,-9.96587113943735
1.042,-9.83389676902844
1.048,-9.72706073887838
1.054,-9.64309974011877
1.06,-9.57994108134611
1.066,-9.53569971568506
1.072,-9.50841902876553
1.078,-9.49695895616052
1.084,-9.4995128617266
1.09,-9.51481352129254
1.096,-9.54163273965108
1.102,-9.57883749105734
1.108,-9.62538337465881
1.114,-9.68030648729023
1.12,-9.74271571583197
1.126,-9.81178551764536
1.132,-9.88674807584049
1.138,-9.96686317258649
1.144,-10.0516515241464
1.15,-10.1402140177897
1.156,-10.2321354092252
1.162,-10.326860102884
1.168,-10.4238848840082
1.174,-10.5227410159745
1.18,-10.6229907782607
1.186,-10.7242254821329
1.192,-10.8260644184477
1.198,-10.9281561901157
1.204,-11.0301952258461
1.21,-11.1326249770731
1.216,-11.2323326938033
1.222,-11.3323505352992
1.228,-11.4310870399152
1.234,-11.5283664374182
1.24,-11.6239862243302
1.246,-11.7177550222837
1.252,-11.8094966717446
1.258,-11.8990506512706
1.264,-11.9862715199463
1.27,-12.0710270200651
1.276,-12.1531859067491
1.282,-12.2331670045889
1.288,-12.3095571261442
1.294,-12.3834534713583
1.3,-12.4544674739307
1.306,-12.5225404662691
1.312,-12.5876330000163
1.318,-12.649717932143
1.324,-12.7087788300906
1.33,-12.7648091074781
1.336,-12.8178113266199
1.342,-12.8677965515666
1.348,-12.9147837210284
1.354,-12.9587990327141
1.36,-12.9998753376066
1.366,-13.0380515452041
1.372,-13.0733720416934
1.378,-13.1058861233324
1.384,-13.1356474473354
1.39,-13.1627135024277
1.396,-13.1871451010191
1.402,-13.2090058946858
1.408,-13.2283619143582
1.414,-13.2452811363126
1.42,-13.2598330747587
1.426,-13.2720884015213
1.432,-13.2821185930308
1.438,-13.2899956045726
1.444,-13.2957915715065
1.45,-13.2995785369492
1.456,-13.3014282052248
1.462,-13.3014117202243
1.468,-13.2995994676821
1.474,-13.2960609002671
1.48,-13.2908643843021
1.486,-13.2840770668652
1.492,-13.2757647619894
1.498,-13.2659918546528
1.504,-13.2548212212552
1.51,-13.2423141652832
1.516,-13.2285303668974
1.522,-13.2135278452046
1.528,-13.1973629320287
1.534,-13.180090256041
1.54,-13.1617627361687
1.546,-13.1424315832616
1.552,-13.1221463090565
1.558,-13.1009547415468
1.564,-13.0788889835857
1.57,-13.0559478708497
1.576,-13.0322060145929
1.582,-13.007704718829
1.588,-12.9824836299767
1.594,-12.9565807806961
1.6,-12.9300326347813
1.606,-12.9028741328396
1.612,-12.8751387385155
1.618,-12.8468584850395
1.624,-12.8180640219123
1.63,-12.7887846615504
1.636,-12.759048425746
1.642,-12.7288820918082
1.648,-12.6983112382728
1.654,-12.6673602900799
1.66,-12.6360525631337
1.666,-12.6044103081667
1.672,-12.5724547538394
1.678,-12.5402061490091
1.684,-12.5076838041038
1.69,-12.4749061315309
1.696,-12.4418906850422
1.702,-12.4086541979586
1.708,-12.3752126201283
1.714,-12.3415811534557
1.72,-12.307774285769
1.726,-12.2738058227087
1.732,-12.2396889171792
1.738,-12.2054360956988
1.744,-12.1710592806691
1.75,-12.1365698070863
1.756,-12.1019784314189
1.762,-12.0672953290648
1.768,-12.0325300745541
1.774,-11.9976915947194
1.78,-11.9627880777961
1.786,-11.9278268074832
1.792,-11.8928138627289
1.798,-11.8577535629713
1.804,-11.8226473962422
1.81,-11.7874918029297
1.816,-11.7522731347256
1.822,-11.7169545408391
1.828,-11.6814344109978
1.834,-11.6453650390845
1.84,-11.6066708697063
1.846,-11.5950413862121
1.852,-11.5474753159378
1.858,-11.510841479719
1.864,-11.4753310415644
1.87,-11.4402013575389
1.876,-11.4052758670285
1.882,-11.3704945654687
1.888,-11.3358339843922
1.894,-11.3012850871743
1.9,-11.2668454470758
1.906,-11.2325159872671
1.912,-11.1982994517757
1.918,-11.1641996201303
1.924,-11.1302208732331
1.93,-11.0963679379753
1.936,-11.0626457285368
1.942,-11.029059242739
1.948,-10.9956134911887
1.954,-10.9623134467782
1.96,-10.9291640073401
1.966,-10.8961699671578
1.972,-10.8633359947009
1.978,-10.8306666149392
1.984,-10.7981661951854
1.99,-10.7658389337834
1.996,-10.7336888511848
2.002,-10.7017197831012
2.008,-10.6699353755038
2.014,-10.6383390813004
2.02,-10.6069341585461
2.026,-10.5757236700672
2.032,-10.5447104843822
2.038,-10.5138972778127
2.044,-10.4832865376716
2.05,-10.4528805664238
2.056,-10.4226814867064
2.062,-10.3926912471017
2.068,-10.3629116285526
2.074,-10.3333442513151
2.08,-10.3039905823429
2.086,-10.2748519430054
2.092,-10.2459295170445
2.098,-10.2172243586803
2.104,-10.1887374007845
2.11,-10.1604694630454
2.116,-10.1324212600577
2.122,-10.1045934092758
2.128,-10.0770731268616
2.134,-10.0499427709973
2.14,-10.0231494646747
2.146,-9.99670114728078
2.152,-9.97060601244095
2.158,-9.94487251881788
2.164,-9.91950940134936
2.17,-9.89452568293763
2.176,-9.86993068660162
2.182,-9.84573404810023
2.188,-9.82194572903051
2.194,-9.79857603039807
2.2,-9.77563560664745
2.206,-9.75313548012654
2.212,-9.73108705593844
2.218,-9.7095021371048
2.224,-9.6883929399198
2.23,-9.66777210930806
2.236,-9.64765273389927
2.242,-9.62804836037853
2.248,-9.60897300643345
2.254,-9.59044117124612
2.26,-9.57246784189149
2.266,-9.55506849308728
2.272,-9.53825907636148
2.278,-9.52205599288765
2.284,-9.50647604305894
2.29,-9.49153635170272
2.296,-9.4772543136783
2.302,-9.46364787106004
2.308,-9.4507380882162
2.314,-9.43856924986909
2.32,-9.42744481441426
2.326,-9.43016126070669
2.332,-9.41284032657483
2.338,-9.39989432140773
2.344,-9.39097878676858
2.35,-9.38340510835483
2.356,-9.37688000226946
2.362,-9.37135034559713
2.368,-9.36681695588832
2.374,-9.36329881140198
2.38,-9.3608231990585
2.386,-9.35942275907708
2.392,-9.35913606508715
2.398,-9.36001774093115
2.404,-9.36232015387651
2.41,-9.36492372890304
2.416,-9.3695682968888
2.422,-9.37540682291758
2.428,-9.38257759832326
2.434,-9.39114064446771
2.44,-9.40114893563955
2.446,-9.41265508541342
2.452,-9.42571273489281
2.458,-9.44037691770708
2.464,-9.45670411569912
2.47,-9.47475217560878
2.476,-9.49458013712875
2.482,-9.51624799608614
2.488,-9.53981643628605
2.494,-9.56534661049488
2.5,-9.59290016928073
2.506,-9.62254001711902
2.512,-9.65433293824921
2.518,-9.68835673997111
2.524,-9.72471706624485
2.53,-9.76357219731482
2.536,-9.80501655071241
2.542,-9.84775222281612
2.548,-9.88902273788818
2.554,-9.93219024668209
2.56,-9.9783064909509
2.566,-10.0260384405401
2.572,-10.0743915980991
2.578,-10.1224400358605
2.584,-10.1690687810306
2.59,-10.2128387200283
2.596,-10.2518854821806
2.602,-10.2838326897116
2.608,-10.3057319418302
2.614,-10.3140638491239
2.62,-10.3048561024783
2.626,-10.2739917655818
2.632,-10.2177776423595
2.638,-10.1337922637092
2.644,-10.0219126721174
2.65,-9.88524271406004
2.656,-9.73052125689641
2.662,-9.5676245209479
2.668,-9.4080848984832
2.674,-9.26301825762354
2.68,-9.14117887032215
2.686,-9.04779470954934
2.692,-8.98442517130301
2.698,-8.94963024631006
2.704,-8.94001326597785
2.71,-8.95123962885497
2.716,-8.97881037190164
2.722,-9.01853976334407
2.728,-9.06678534035105
2.734,-9.12051034407387
2.74,-9.17725115566778
2.746,-9.23504154588962
2.752,-9.29232523125027
2.758,-9.3478732390379
2.764,-9.4007131371639
2.77,-9.45007191294451
2.776,-9.49533169366936
2.782,-9.53599645374687
2.788,-9.57166761101078
2.794,-9.60202654683272
2.8,-9.6268223585473
2.806,-9.64586345367491
2.812,-9.65901187357608
2.818,-9.66617947268397
2.824,-9.66732527700473
2.83,-9.66245350697424
2.836,-9.6516118813892
2.842,-9.63488992686196
2.848,-9.61241710572688
2.854,-9.5843606478918
2.86,-9.5509230310329
2.866,-9.51233910024444
2.872,-9.46887285376498
2.878,-9.42081394643979
2.884,-9.36847397775094
2.89,-9.31218263700855
2.896,-9.25228377473329
2.902,-9.18913145548071
2.908,-9.12308602008267
2.914,-9.05451013537723
2.92,-8.98376471283598
2.926,-8.91120436828946
2.932,-8.83717157896128
2.938,-8.76198722426733
2.944,-8.68593022674435
2.95,-8.60917784027051
2.956,-8.53154927308004
2.962,-8.45030733000094
2.968,-8.37227438303764
2.974,-8.31441705055617
2.98,-8.23859306387293
2.986,-8.16521251078126
2.992,-8.09365902445982
2.998,-8.02389451467234
3.004,-7.95599890817535
3.01,-7.89007604224425
3.016,-7.82622645922031
3.022,-7.7645376026498
3.028,-7.70507980292383
3.034,-7.64790458770224
3.04,-7.59304409548536
3.046,-7.540511105485
3.052,-7.49029946984775
3.058,-7.44238484485772
3.064,-7.39672566470183
3.07,-7.3532643211495
3.076,-7.31192851989447
3.082,-7.27263278592552
3.088,-7.23528008933664
3.094,-7.19976356114858
3.1,-7.16596826694901
3.106,-7.13377300502477
3.112,-7.10305209546827
3.118,-7.07367712763122
3.124,-7.04551863528483
3.13,-7.01844767184046
3.136,-6.992337261828
3.142,-6.96706370931197
3.148,-6.94250774880953
3.154,-6.91855552931593
3.16,-6.8950994270096
3.166,-6.87203868689266
3.172,-6.84927989785551
3.178,-6.8267373093063
3.184,-6.80433300049893
3.19,-6.78199691598517
3.196,-6.75966678221157
3.202,-6.7372879212123
3.208,-6.71481297767684
3.214,-6.69220157547285
3.22,-6.66941991907074
3.226,-6.64644035433791
3.232,-6.62324090194058
3.238,-6.59980477519306
3.244,-6.57611989270637
3.25,-6.55217839467388
3.256,-6.52773180494225
3.262,-6.50307141391147
3.268,-6.47821230643385
3.274,-6.45316959404897
3.28,-6.42795840386659
3.286,-6.40259386820813
3.292,-6.37709111495141
3.298,-6.3514652585163
3.304,-6.32573139142132
3.31,-6.2999045763348
3.316,-6.27399983853703
3.322,-6.24803215870337
3.328,-6.22201646591192
3.334,-6.19596763077317
3.34,-6.16990045857331
3.346,-6.14382968231714
3.352,-6.11776995555178
3.358,-6.09173584484745
3.364,-6.06574182180775
3.37,-6.03980225447836
3.376,-6.01393139802071
3.382,-5.98814338451535
3.388,-5.96245221175936
3.394,-5.93687173092292
3.4,-5.91141563293227
3.406,-5.88609743345018
3.412,-5.86093045633095
3.418,-5.8359278154345
3.424,-5.81110239469466
3.43,-5.78646682634901
3.436,-5.7620334672535
3.442,-5.73781437322314
3.448,-5.71382127136155
3.454,-5.69006553036723
3.46,-5.66655812883184
3.466,-5.64330962157779
3.472,-5.62033010411648
3.478,-5.59762917534663
3.484,-5.57521589865267
3.49,-5.55309876160599
3.496,-5.53128563451725
3.502,-5.50978372813393
3.508,-5.48859955082456
3.514,-5.46773886563723
3.52,-5.44720664766528
3.526,-5.42700704219513
3.532,-5.40714332414965
3.538,-5.3876178593731
3.544,-5.36843206832957
3.55,-5.34958639280389
3.556,-5.33108026620149
3.562,-5.31291208803905
3.568,-5.29507920320093
3.574,-5.27757788650526
3.58,-5.26040333307773
3.586,-5.24354965496982
3.592,-5.22700988438158
3.598,-5.21077598375671
3.604,-5.19483886291082
3.61,-5.17918840323322
3.616,-5.16381348886971
3.622,-5.14870204465101
3.628,-5.13384108038078
3.634,-5.11921674094077
3.64,-5.10481436151243
3.646,-5.0906185270559
3.652,-5.07661313503226
3.658,-5.06278146020594
3.664,-5.04910622022302
3.67,-5.03556964053014
3.676,-5.02215351707905
3.682,-5.00883927515403
3.688,-4.99560802256305
3.694,-4.98244059534904
3.7,-4.96931759410176
3.706,-4.95621940888347
3.712,-4.94312623072015
3.718,-4.93001804755294
3.724,-4.91687462249262
3.73,-4.90367545217501
3.736,-4.89039970298573
3.742,-4.87702612292296
3.748,-4.86353292692517
3.754,-4.84989765365363
3.76,-4.83609699206423
3.766,-4.82210657675181
3.772,-4.80790075219803
3.778,-4.79345230799931
3.784,-4.77873219036057
3.79,-4.76370920032116
3.796,-4.74834969740857
3.802,-4.73261734031192
3.808,-4.71647291613339
3.814,-4.69987434032055
3.82,-4.68277695549005
3.826,-4.66513432582103
3.832,-4.64689982315301
3.838,-4.62802944087316
3.844,-4.60848645916713
3.85,-4.58824881631622
3.856,-4.56732028204998
3.862,-4.54574668210447
3.868,-4.52363826613726
3.874,-4.50119842439736
3.88,-4.47875668874179
3.886,-4.45679957394231
3.892,-4.43598618413674
3.898,-4.41712850402927
3.904,-4.40111453243931
3.91,-4.38876476959399
3.916,-4.38064437215131
3.922,-4.37689372480744
3.928,-4.37715803228853
3.934,-4.38066322384317
3.94,-4.38641257007937
3.946,-4.39341896589649
3.952,-4.40088499067729
3.958,-4.40828779782846
3.964,-4.41537648790498
3.97,-4.42211577827366
3.976,-4.4286102376089
3.982,-4.43503172085512
3.988,-4.44156072524051
3.994,-4.44834481654932
4,-4.45547374901067
4.006,-4.46296956786992
4.012,-4.47078931996386
4.018,-4.47883734153489
4.024,-4.4869834752497
4.03,-4.49508331910856
4.036,-4.50299698243458
4.042,-4.51060379654887
4.048,-4.51781172052372
4.054,-4.52456142261274
4.06,-4.53082591736745
4.066,-4.53660708502454
4.072,-4.5419304439473
4.078,-4.54683932763903
4.084,-4.55138928500369
4.09,-4.55564318927068
4.096,-4.55966726998218
4.102,-4.56352809399594
4.108,-4.56729040960882
4.114,-4.57101571503017
4.12,-4.57476139900403
4.126,-4.57858031088215
4.132,-4.58252063793839
4.138,-4.58662599153886
4.144,-4.59093562662103
4.15,-4.59548473873715
4.156,-4.60030479902162
4.162,-4.60542389995279
4.168,-4.61086709415312
4.174,-4.61665671528213
4.18,-4.62281267488407
4.186,-4.62935273234735
4.192,-4.63629273731589
4.198,-4.6436468452783
4.204,-4.65142770788733
4.21,-4.65964664000461
4.216,-4.66831376565288
4.222,-4.67743814507971
4.228,-4.6870278850566
4.234,-4.69709023439848
4.24,-4.70763166652045
4.246,-4.71865795066938
4.252,-4.73017421329123
4.258,-4.74218499082512
4.264,-4.75469427505997
4.27,-4.76770555204675
4.276,-4.78122183543288
4.282,-4.79524569497261
4.288,-4.80977928086789
4.294,-4.82482434450817
4.3,-4.84038225610169
4.306,-4.85645401962583
4.312,-4.87304028546712
4.318,-4.89014136107298
4.324,-4.90775721989466
4.33,-4.92588750886483
4.336,-4.94453155462146
4.342,-4.96368836866309
4.348,-4.9833566515966
4.354,-5.00353479661917
4.36,-5.02422089235796
4.366,-5.04541272517669
4.372,-5.06710778104476
4.378,-5.08930324705346
4.384,-5.11199601265413
4.39,-5.13518267068411
4.396,-5.15885951823964
4.402,-5.18302255744748
4.408,-5.20766749618208
4.414,-5.2327897487696
4.42,-5.25838443671588
4.426,-5.2844463894916
4.432,-5.31097014540418
4.438,-5.33794995258324
4.444,-5.36537977010327
4.45,-5.39325326926509
4.456,-5.42156383505523
4.462,-5.45030456780037
4.468,-5.47946828503231
4.474,-5.50904752357714
4.48,-5.53903454188076
4.486,-5.56942132258184
4.492,-5.60019957534135
4.498,-5.63136073993748
4.504,-5.66289598963296
4.51,-5.69479623482109
4.516,-5.72705212695588
4.522,-5.75965406277058
4.528,-5.79259218878819
4.534,-5.82585640612684
4.54,-5.8594363756018
4.546,-5.89332152312551
4.552,-5.92750104540625
4.558,-5.96196391594523
4.564,-5.99669889133129
4.57,-6.03169451783203
4.576,-6.06693913827913
4.582,-6.10242089924541
4.588,-6.1381277585104
4.594,-6.17404749281052
4.6,-6.21016770586978
4.606,-6.24647583670583
4.612,-6.28295916820608
4.618,-6.31960483596766
4.624,-6.35639983739487
4.63,-6.39333104104668
4.636,-6.43038519622683
4.642,-6.46754894280798
4.648,-6.50480882128129
4.654,-6.54215128302179
4.66,-6.57956270075966
4.666,-6.61702937924683
4.672,-6.65453756610763
4.678,-6.69207346286179
4.684,-6.72962323610751
4.69,-6.76717302885155
4.696,-6.80470897197286
4.702,-6.84221719580568
4.708,-6.87968384182747
4.714,-6.9170950744362
4.72,-6.95443709280155
4.726,-6.99169614277327
4.732,-7.02885852883014
4.738,-7.0659106260519
4.744,-7.10283889209637
4.75,-7.13962987916335
4.756,-7.17627024592656
4.762,-7.21274676941438
4.768,-7.24904635681982
4.774,-7.28515605721994
4.78,-7.32106307318447
4.786,-7.35675477225325
4.792,-7.3922186982621
4.798,-7.42744258249626
4.804,-7.46241435465078
4.81,-7.4971221535772
4.816,-7.53155433779585
4.822,-7.56569949575329
4.828,-7.59954645580471
4.834,-7.63308429590121
4.84,-7.66630235296252
4.846,-7.69919023191599
4.852,-7.7317378143832
4.858,-7.76393526699629
4.864,-7.79577304932656
4.87,-7.82724192140901
4.876,-7.85833295084695
4.882,-7.88903751948188
4.888,-7.91934732961502
4.894,-7.94925440976747
4.9,-7.97875111996755
4.906,-8.00783015655478
4.912,-8.03648455649126
4.918,-8.06470770117248
4.924,-8.09249331973087
4.93,-8.119835491827
4.936,-8.14672864992425
4.942,-8.17316758104468
4.948,-8.19914742800503
4.954,-8.22466369013316
4.96,-8.24971222346685
4.966,-8.27428924043826
4.972,-8.29839130904864
4.978,-8.32201535153961
4.984,-8.34515864256833
4.99,-8.36781880689554
4.996,-8.38999381659658
5.002,-8.41168198780681
5.008,-8.43288197701414
5.014,-8.45359277691229
5.02,-8.47381371182988
5.026,-8.493544432751
5.032,-8.51278491194426
5.038,-8.53153543721788
5.044,-8.54979660581936
5.05,-8.56756931799891
5.056,-8.58485477025631
5.062,-8.60165444829167
5.068,-8.61797011968063
5.074,-8.63380382629534
5.08,-8.64915787649226
5.086,-8.66403483708855
5.092,-8.67843752514864
5.098,-8.69236899960234
5.104,-8.70583255271635
5.11,-8.71883170144029
5.116,-8.73137017864853
5.122,-8.7434519242985
5.128,-8.75508107652612
5.134,-8.76626196269811
5.14,-8.77699909044092
5.146,-8.78729713866504
5.152,-8.79716094860313
5.158,-8.80659551487961
5.164,-8.81560597662868
5.17,-8.82419760867706
5.176,-8.83237581280695
5.182,-8.84014610911385
5.188,-8.84751412747316
5.194,-8.85448559912869
5.2,-8.86106634841518
5.206,-8.86726228462634
5.212,-8.87307939403884
5.218,-8.87852373210201
5.224,-8.88360141580203
5.23,-8.8883186162086
5.236,-8.89268155121141
5.242,-8.89669647845252
5.248,-8.9003696884605
5.254,-8.9037074979909
5.26,-8.90671624357731
5.266,-8.9094022752961
5.272,-8.91177195074768
5.278,-8.9138316292561
5.284,-8.91558766628837
5.29,-8.91704640809413
5.296,-8.91821418656578
5.302,-8.91909731431875
5.308,-8.91970207999077
5.314,-8.9200347437588
5.32,-8.92010153307172
5.326,-8.91990863859637
5.332,-8.91946221037436
5.338,-8.91876835418635
5.344,-8.91783312812063
5.35,-8.91666253934211
5.356,-8.91526254105782
5.362,-8.91363902967467
5.368,-8.91179784214502
5.374,-8.90974475349543
5.38,-8.90748547453381
5.386,-8.90502564973005
5.392,-8.90237085526497
5.398,-8.89952659724268
5.404,-8.89649831006081
5.41,-8.89329135493364
5.416,-8.88991101856267
5.422,-8.88636251194925
5.428,-8.88265096934414
5.434,-8.87878144732852
5.44,-8.87475892402121
5.446,-8.8705882984069
5.452,-8.86627438978011
5.458,-8.8618219372999
5.464,-8.85723559965005
5.47,-8.8525199548
5.476,-8.84767949986143
5.482,-8.84271865103582
5.488,-8.83764174364832
5.494,-8.83245303226319
5.5,-8.82715669087658
5.506,-8.8221631610742
5.512,-8.81690855979593
5.518,-8.81139706798809
5.524,-8.80563299845165
5.53,-8.79962078965051
5.536,-8.79336499944255
5.542,-8.78687029874942
5.548,-8.78014146518035
5.554,-8.77318337662543
5.56,-8.76600100483288
5.566,-8.75859940898524
5.572,-8.75098372928828
5.578,-8.74315918058639
5.584,-8.73513104601768
5.59,-8.72690467072124
5.596,-8.71848545560888
5.602,-8.70987885121265
5.608,-8.70109035161916
5.614,-8.69212548850094
5.62,-8.68298982525456
5.626,-8.67368895125443
5.632,-8.66422847623075
5.638,-8.65461402477926
5.644,-8.64485123100983
5.65,-8.63494573334039
5.656,-8.6249031694419
5.662,-8.61472917133949
5.668,-8.60442936067429
5.674,-8.59400934412986
5.68,-8.58347470902643
5.686,-8.57283101908575
5.692,-8.56208381036863
5.698,-8.55123858738676
5.704,-8.54030081938997
5.71,-8.52927593682938
5.716,-8.51816932799661
5.722,-8.50698633583864
5.728,-8.49573225494764
5.734,-8.48441232872437
5.74,-8.47303174671378
5.746,-8.46159564211073
5.752,-8.45010908943366
5.758,-8.43857710236354
5.764,-8.42700463174535
5.77,-8.4153965637489
5.776,-8.40375771818566
5.782,-8.39209284697811
5.788,-8.38040663277774
5.794,-8.36870368772793
5.8,-8.35698855236746
5.806,-8.34526569467079
5.812,-8.33353950922034
5.818,-8.32181431650693
5.824,-8.31009436235346
5.83,-8.29838381745765
5.836,-8.28668677704909
5.842,-8.27500726065621
5.848,-8.26334921197834
5.854,-8.25171649885859
5.86,-8.24011291335275
5.866,-8.22854217188974
5.872,-8.21700791551911
5.878,-8.20551371024118
5.884,-8.19406304741531
5.89,-8.18265934424191
5.896,-8.17130594431417
5.902,-8.16000611823486
5.908,-8.1487630642945
5.914,-8.13757990920645
5.92,-8.12645970889523
5.926,-8.11540544933399
5.932,-8.10442004742734
5.938,-8.09350635193596
5.944,-8.0826671444391
5.95,-8.0719051403317
5.956,-8.06122298985239
5.962,-8.05062327913929
5.968,-8.04010853131009
5.974,-8.02968120756328
5.98,-8.01934370829751
5.986,-8.00909837424586
5.992,-7.99894748762222
5.998,-7.98889327327679
6.004,-7.97893789985787
6.01,-7.96908348097727
6.016,-7.95933207637652
6.022,-7.94968569309133
6.028,-7.94014628661158
6.034,-7.93071576203449
6.04,-7.92139597520815
6.046,-7.91218873386318
6.052,-7.90309579872997
