"Freq [GHz]","dB(St(1,8)) []"
1,-16.9479148852519
1.006,-17.0719152254883
1.012,-17.1546884734137
1.018,-17.2094986140996
1.024,-17.245458566134
1.03,-17.2686277133617
1.036,-17.2830223786042
1.042,-17.2913267933796
1.048,-17.2953473590372
1.054,-17.2962875311334
1.06,-17.2948766552565
1.066,-17.2910049254642
1.072,-17.2934900838417
1.078,-17.2845520911832
1.084,-17.2777380867914
1.09,-17.2700843174016
1.096,-17.2613135153502
1.102,-17.2512571252938
1.108,-17.2397539482242
1.114,-17.2266426556815
1.12,-17.2117672172396
1.126,-17.194985543568
1.132,-17.1761873143172
1.138,-17.1554785679873
1.144,-17.1314416580729
1.15,-17.1060890146239
1.156,-17.0782199606934
1.162,-17.0479675071756
1.168,-17.0153644967442
1.174,-16.9804547466629
1.18,-16.9433002676224
1.186,-16.9039796125078
1.192,-16.862581862385
1.198,-16.8191885366373
1.204,-16.7737737167078
1.21,-16.7223486620716
1.216,-16.6804799823481
1.222,-16.6302972366699
1.228,-16.5792743804511
1.234,-16.5272695165943
1.24,-16.4743842903514
1.246,-16.4207532629414
1.252,-16.3665169608208
1.258,-16.3118151745161
1.264,-16.2567855912301
1.27,-16.2015685962658
1.276,-16.1463557539002
1.282,-16.0890660931253
1.288,-16.0354145060687
1.294,-15.9805488628649
1.3,-15.925945407959
1.306,-15.8717281398782
1.312,-15.817980551291
1.318,-15.7647725623429
1.324,-15.71216499111
1.33,-15.6602109465597
1.336,-15.6089565250772
1.342,-15.5584413037672
1.348,-15.5086987641804
1.354,-15.4597566882696
1.36,-15.411637540179
1.366,-15.3643588377662
1.372,-15.3179335142541
1.378,-15.2723702691959
1.384,-15.2276739076283
1.39,-15.183845666342
1.396,-15.1408835263857
1.402,-15.0987825111488
1.408,-15.0575349695981
1.414,-15.0171308444419
1.42,-14.9775579251797
1.426,-14.9388020861412
1.432,-14.9008475097427
1.438,-14.8636768952866
1.444,-14.8272716537107
1.45,-14.7916120887481
1.456,-14.7566775650084
1.462,-14.7224466635181
1.468,-14.6888973252789
1.474,-14.6560069834171
1.48,-14.6237526844959
1.486,-14.5921111995669
1.492,-14.5610591255255
1.498,-14.530572977328
1.504,-14.5006292716122
1.51,-14.471204602251
1.516,-14.4422757083488
1.522,-14.4138195351729
1.528,-14.3858132884929
1.534,-14.3582344827814
1.54,-14.331060983709
1.546,-14.3042710453463
1.552,-14.2778433424646
1.558,-14.2517569983102
1.564,-14.226029841406
1.57,-14.2007413864
1.576,-14.1757715320546
1.582,-14.1511017419488
1.588,-14.1267140621202
1.594,-14.102591121402
1.6,-14.0787161278008
1.606,-14.0550728616935
1.612,-14.0316456664942
1.618,-14.0084194373389
1.624,-13.9853796082458
1.63,-13.9625121381348
1.636,-13.9398034960241
1.642,-13.9172406456704
1.648,-13.8948110298725
1.654,-13.8725025546201
1.66,-13.850303573239
1.666,-13.8282028706541
1.672,-13.8061896478738
1.678,-13.7842535067769
1.684,-13.7623844352717
1.69,-13.740572792883
1.696,-13.7188092968174
1.702,-13.6970850085471
1.708,-13.6753913209566
1.714,-13.6537199460913
1.72,-13.6320629035598
1.726,-13.6104125096493
1.732,-13.5887613672374
1.738,-13.5671023566195
1.744,-13.5454286274242
1.75,-13.5237335918837
1.756,-13.5020109198696
1.762,-13.4802545363539
1.768,-13.4584586223749
1.774,-13.436617621339
1.78,-13.4147262538701
1.786,-13.3927795470935
1.792,-13.370772889694
1.798,-13.3487021359617
1.804,-13.326563809966
1.81,-13.304355533411
1.816,-13.2820770131709
1.822,-13.2597326601645
1.828,-13.237340139401
1.834,-13.2149698829963
1.84,-13.1931388559264
1.846,-13.1664142948896
1.852,-13.145390620705
1.858,-13.1226885466404
1.864,-13.0997039618041
1.87,-13.0765518806836
1.876,-13.0532593110704
1.882,-13.0298345225552
1.888,-13.0062798623533
1.894,-12.9825953720073
1.9,-12.9587800844939
1.906,-12.9348325693138
1.912,-12.9107511891644
1.918,-12.8865342316978
1.924,-12.8621799819427
1.93,-12.8376867644289
1.936,-12.8130529689249
1.942,-12.7882770668931
1.948,-12.7633576224957
1.954,-12.7382933003091
1.96,-12.7130828710184
1.966,-12.6877252158575
1.972,-12.6622193302801
1.978,-12.636564327169
1.984,-12.6107594397896
1.99,-12.584804024623
1.996,-12.5586975641763
2.002,-12.532439669835
2.008,-12.5060300848061
2.014,-12.4794686871883
2.02,-12.4527554931941
2.026,-12.4258906605455
2.032,-12.39887449206
2.038,-12.3717074394387
2.044,-12.3443901072686
2.05,-12.3169232572479
2.056,-12.2893078126432
2.062,-12.2615448629856
2.068,-12.2336356690123
2.074,-12.2055816678608
2.08,-12.1773844785205
2.086,-12.1490459075488
2.092,-12.1205679550558
2.098,-12.0919528209631
2.104,-12.0632029115423
2.11,-12.0343208462369
2.116,-12.0053094647729
2.122,-11.9761718345609
2.128,-11.9472756969953
2.134,-11.9185743574077
2.14,-11.8896914249039
2.146,-11.860632137408
2.152,-11.8314019883011
2.158,-11.802006741986
2.164,-11.7724524508158
2.17,-11.7427454735978
2.176,-11.7128924959359
2.182,-11.6829005527451
2.188,-11.652777053366
2.194,-11.6225298098382
2.2,-11.5921670690741
2.206,-11.5616975499338
2.212,-11.5311304865794
2.218,-11.5004756800442
2.224,-11.469743560792
2.23,-11.4389452663382
2.236,-11.4080927400551
2.242,-11.3771988606081
2.248,-11.3462776170323
2.254,-11.315344354061
2.26,-11.2844161295342
2.266,-11.2535122578956
2.272,-11.2226551769461
2.278,-11.1918719062272
2.284,-11.1611966570194
2.29,-11.1306758572668
2.296,-11.1003787318013
2.302,-11.0704222771264
2.308,-11.0410399747857
2.314,-11.0128164634434
2.32,-10.987755931736
2.326,-10.9501989459933
2.332,-10.8953799626442
2.338,-10.8761776977538
2.344,-10.8501862875979
2.35,-10.8227849512902
2.356,-10.7950699978583
2.362,-10.7674208990039
2.368,-10.7400214569561
2.374,-10.7129865702792
2.38,-10.6864039208573
2.386,-10.660351408982
2.392,-10.6349082880677
2.398,-10.6101780634743
2.404,-10.5866109955975
2.41,-10.5622513987463
2.416,-10.5401577036862
2.422,-10.518862598126
2.428,-10.4986273972901
2.434,-10.4795836238673
2.44,-10.461858689615
2.446,-10.4455893392633
2.452,-10.4309261453641
2.458,-10.4180365923633
2.464,-10.4071080832544
2.47,-10.3983512637313
2.476,-10.3920038579895
2.482,-10.3883351629156
2.488,-10.3876513369496
2.494,-10.3903016082986
2.5,-10.3966854801511
2.506,-10.4072608571941
2.512,-10.4225525668122
2.518,-10.4431594161928
2.524,-10.4697536757944
2.53,-10.5030511825473
2.536,-10.5436566036818
2.542,-10.5911647338642
2.548,-10.6320049430874
2.554,-10.7665580699263
2.56,-10.8399448888908
2.566,-10.944002813302
2.572,-11.0711927251677
2.578,-11.224252991415
2.584,-11.4079890345298
2.59,-11.6288132292391
2.596,-11.895004227478
2.602,-12.2172231518597
2.608,-12.6092541760899
2.614,-13.089011462381
2.62,-13.6798688593745
2.626,-14.4123184788533
2.632,-15.3256921972584
2.638,-16.4685467642334
2.644,-17.891730220813
2.65,-19.6098588343801
2.656,-21.4461139134092
2.662,-22.6578129723584
2.668,-22.2009492742889
2.674,-20.4434066055439
2.68,-18.4754077082984
2.686,-16.7601905209936
2.692,-15.3643807450982
2.698,-14.2493322192052
2.704,-13.3616701852907
2.71,-12.6540162468985
2.716,-12.0881345399627
2.722,-11.6340691739941
2.728,-11.2685901129506
2.734,-10.9737371546965
2.74,-10.7356198421034
2.746,-10.543471478106
2.752,-10.3889181779033
2.758,-10.2654198145021
2.764,-10.167844663357
2.77,-10.0921464539555
2.776,-10.0351191558076
2.782,-9.99421047813893
2.788,-9.96737962394423
2.794,-9.95298840109504
2.8,-9.94971751763277
2.806,-9.95650194459902
2.812,-9.97248076888499
2.818,-9.99695810527236
2.824,-10.0293724893737
2.83,-10.0692728068983
2.836,-10.116299286284
2.842,-10.1701684334527
2.848,-10.2306610504352
2.854,-10.297612676798
2.86,-10.3709059409539
2.866,-10.4504644197818
2.872,-10.5362476882866
2.878,-10.6282473023707
2.884,-10.726483500919
2.89,-10.8310024396263
2.896,-10.9418737763689
2.902,-11.0591884086869
2.908,-11.1830560983266
2.914,-11.3136025574488
2.92,-11.4509651935958
2.926,-11.5952857806824
2.932,-11.746695822196
2.938,-11.9052827453854
2.944,-12.0709974048098
2.95,-12.2433345786367
2.956,-12.4197230141289
2.962,-12.5780308509724
2.968,-12.8315517284777
2.974,-13.0510889869201
2.98,-13.2672837243453
2.986,-13.4948013930104
2.992,-13.7332825155389
2.998,-13.9827514302611
3.004,-14.2434412006237
3.01,-14.5156825065855
3.016,-14.7998610468268
3.022,-15.096400527191
3.028,-15.4057559933637
3.034,-15.7284120105509
3.04,-16.0648835691929
3.046,-16.4157188797077
3.052,-16.7815037630646
3.058,-17.1628676053983
3.064,-17.5604909939615
3.07,-17.9751152586015
3.076,-18.4075542407898
3.082,-18.8587087203846
3.088,-19.3295840639784
3.094,-19.8213118336385
3.1,-20.3351763309602
3.106,-20.8726473759959
3.112,-21.4354210735878
3.118,-22.0254709604399
3.124,-22.6451128460399
3.13,-23.2970880019237
3.136,-23.9846713447863
3.142,-24.7118142727406
3.148,-25.4833364764664
3.154,-26.3051884365207
3.16,-27.1848183486232
3.166,-28.1316973981405
3.172,-29.158092291101
3.178,-30.2802368582128
3.184,-31.5201722198945
3.19,-32.9087542455355
3.196,-34.4907899037824
3.202,-36.3342071035365
3.208,-38.5468671426842
3.214,-41.304777786646
3.22,-44.8530784750428
3.226,-48.8315517180503
3.232,-48.9554717702275
3.238,-45.32817679761
3.244,-42.1624054322755
3.25,-39.7820177045145
3.256,-38.0340998476993
3.262,-36.6088600416797
3.268,-35.4170141052571
3.274,-34.4007703301953
3.28,-33.5210630190724
3.286,-32.7504045701673
3.292,-32.0687741998469
3.298,-31.4611553521637
3.304,-30.9160001413514
3.31,-30.4242362355638
3.316,-29.9786034495542
3.322,-29.5731977893644
3.328,-29.2031501199666
3.334,-28.8643946294593
3.34,-28.5534986744332
3.346,-28.2675355110816
3.352,-28.0039875836457
3.358,-27.7606719743673
3.364,-27.5356821852943
3.37,-27.327342132215
3.376,-27.1341693923061
3.382,-26.9548455496336
3.388,-26.7881920461891
3.394,-26.6331503477066
3.4,-26.4887655235312
3.406,-26.3541725519233
3.412,-26.2285848191148
3.418,-26.1112843978015
3.424,-26.0016137794246
3.43,-25.8989688022041
3.436,-25.8027925689054
3.442,-25.7125701886689
3.448,-25.6278242087748
3.454,-25.548110627056
3.46,-25.4730153953687
3.466,-25.4021513402543
3.472,-25.3351554395537
3.478,-25.2716864039356
3.484,-25.2114225205918
3.49,-25.1540597231213
3.496,-25.0993098571847
3.502,-25.0468991160951
3.508,-24.9965666243147
3.514,-24.9480631499916
3.52,-24.9011499303187
3.526,-24.855597595722
3.532,-24.8111851807638
3.538,-24.7676992112369
3.544,-24.7249328582839
3.55,-24.6826851515356
3.556,-24.6407602442657
3.562,-24.5989667244252
3.568,-24.557116966182
3.574,-24.5150265172633
3.58,-24.4725135179986
3.586,-24.4293981485116
3.592,-24.3855021010151
3.598,-24.3406480746471
3.604,-24.2946592907558
3.61,-24.2473590270116
3.616,-24.1985701692151
3.622,-24.1481147801865
3.628,-24.0958136856936
3.634,-24.041486078017
3.64,-23.9849491384848
3.646,-23.9260176811718
3.652,-23.8645038209773
3.658,-23.8002166705195
3.664,-23.7329620717617
3.67,-23.6625423700876
3.676,-23.5887562407397
3.682,-23.5113985802401
3.688,-23.4302604787339
3.694,-23.3451292932979
3.7,-23.2557888473268
3.706,-23.1620197873713
3.712,-23.0636001365609
3.718,-22.9603060933402
3.724,-22.8519131361164
3.73,-22.7381975090855
3.736,-22.6189381825895
3.742,-22.4939194035956
3.748,-22.3629339791232
3.754,-22.2257874685884
3.76,-22.0823035010581
3.766,-21.9323304811737
3.772,-21.7757500036252
3.778,-21.6124873604833
3.784,-21.4425245971992
3.79,-21.2659166482548
3.796,-21.0828111553406
3.802,-20.8934726268691
3.808,-20.6983116161573
3.814,-20.4979195424372
3.82,-20.2931096017647
3.826,-20.0849638385734
3.832,-19.874885771154
3.838,-19.6646568598988
3.844,-19.4564934423689
3.85,-19.253098435312
3.856,-19.0576991388656
3.862,-18.8740591402907
3.868,-18.7064492929033
3.874,-18.5595612975407
3.88,-18.438349341486
3.886,-18.3477924932682
3.892,-18.2925842223767
3.898,-18.2767743996512
3.904,-18.3034089950785
3.91,-18.3742260383526
3.916,-18.4894656659132
3.922,-18.6478338493148
3.928,-18.8466277178001
3.934,-19.0819958943817
3.94,-19.3492820547164
3.946,-19.6433913778736
3.952,-19.9591274023316
3.958,-20.291464766507
3.964,-20.6357434492972
3.97,-20.9877864935457
3.976,-21.3439532725164
3.982,-21.7011444437577
3.988,-22.0567745492481
3.994,-22.4087257110116
4,-22.755292558714
4.006,-23.095125340688
4.012,-23.4271755466284
4.018,-23.7506464192355
4.024,-24.0649493937437
4.03,-24.3696666533596
4.036,-24.6645194926808
4.042,-24.9493419266554
4.048,-25.2240588825294
4.054,-25.48866830457
4.06,-25.7432265444925
4.066,-25.9878364778145
4.072,-26.2226378616538
4.078,-26.4477995235608
4.084,-26.6635130390485
4.09,-26.8699876154999
4.096,-27.0674459515958
4.102,-27.2561208846972
4.108,-27.4362526745243
4.114,-27.6080868009445
4.12,-27.7718721776793
4.126,-27.9278597031506
4.132,-28.0763010853108
4.138,-28.2174478898218
4.144,-28.3515507709415
4.15,-28.4788588524313
4.156,-28.5996192321083
4.162,-28.71407658866
4.168,-28.8224728732804
4.174,-28.9250470717927
4.18,-29.0220350253681
4.186,-29.1136692998668
4.192,-29.2001790953399
4.198,-29.2817901884138
4.204,-29.3587249012205
4.21,-29.4312020912781
4.216,-29.4994371573228
4.222,-29.5636420565827
4.228,-29.6240253293804
4.234,-29.6807921272992
4.24,-29.734144241445
4.246,-29.7842801276094
4.252,-29.8313949253993
4.258,-29.8756804686436
4.264,-29.917325284646
4.27,-29.9565145801043
4.276,-29.9934302117928
4.282,-30.0282506403833
4.288,-30.0611508660883
4.294,-30.0923023451296
4.3,-30.1218728863753
4.306,-30.1500265278546
4.312,-30.1769233932347
4.318,-30.2027195287399
4.324,-30.2275667214032
4.33,-30.2516122999477
4.336,-30.2749989200175
4.342,-30.2978643358815
4.348,-30.3203411611304
4.354,-30.3425566212636
4.36,-30.3646323014001
4.366,-30.3866838926531
4.372,-30.4088209409573
4.378,-30.4311466023315
4.384,-30.4537574086866
4.39,-30.4767430483366
4.396,-30.5001861653499
4.402,-30.5241621817623
4.408,-30.5487391464835
4.414,-30.5739776144515
4.42,-30.5999305592338
4.426,-30.6266433218469
4.432,-30.6541535980725
4.438,-30.6824914660022
4.444,-30.7116794549573
4.45,-30.7417326563127
4.456,-30.7726588761312
4.462,-30.8044588288886
4.468,-30.8371263709665
4.474,-30.8706487720169
4.48,-30.9050070217786
4.486,-30.9401761694527
4.492,-30.9761256923455
4.498,-31.012819890158
4.504,-31.0502183010482
4.51,-31.088276135424
4.516,-31.1269447233335
4.522,-31.166171971304
4.528,-31.2059028245387
4.534,-31.2460797305065
4.54,-31.2866431001375
4.546,-31.3275317630707
4.552,-31.3686834136701
4.558,-31.4100350448258
4.564,-31.4515233668798
4.57,-31.493085209351
4.576,-31.534657903473
4.582,-31.5761796438942
4.588,-31.6175898282159
4.594,-31.6588293733566
4.6,-31.6998410080237
4.606,-31.740569540844
4.612,-31.7809621039508
4.618,-31.8209683720468
4.624,-31.8605407571575
4.63,-31.8996345794557
4.636,-31.9382082146855
4.642,-31.9762232188312
4.648,-32.0136444307751
4.654,-32.0504400537677
4.66,-32.0865817165882
4.666,-32.1220445153218
4.672,-32.1568070367047
4.678,-32.1908513640056
4.684,-32.2241630664204
4.69,-32.256731172951
4.696,-32.2885481317346
4.702,-32.3196097557715
4.708,-32.3499151559856
4.714,-32.3794666625258
4.72,-32.4082697351977
4.726,-32.4363328638901
4.732,-32.4636674598338
4.738,-32.4902877385096
4.744,-32.5162105949968
4.75,-32.5414554725304
4.756,-32.5660442250146
4.762,-32.5900009742183
4.768,-32.6133519623599
4.774,-32.6361254007699
4.78,-32.6583513153042
4.786,-32.6800613891616
4.792,-32.7012888037496
4.798,-32.7220680782217
4.804,-32.7424349083028
4.81,-32.7624260049989
4.816,-32.782078933781
4.822,-32.8014319548136
4.828,-32.8205238647894
4.834,-32.8393938409155
4.84,-32.8580812875809
4.846,-32.8766256862205
4.852,-32.8950664488725
4.858,-32.9134427759086
4.864,-32.9317935183941
4.87,-32.950157045514
4.876,-32.9685711174789
4.882,-32.9870727642938
4.888,-33.0056981707501
4.894,-33.0244825679678
4.9,-33.043460131783
4.906,-33.0626638882438
4.912,-33.0821256264386
4.918,-33.1018758188476
4.924,-33.1219435493643
4.93,-33.1423564490993
4.936,-33.1631406400331
4.942,-33.1843206865463
4.948,-33.2059195548122
4.954,-33.2279585799972
4.96,-33.2504574411704
4.966,-33.2734341437881
4.972,-33.296905009577
4.978,-33.320884673603
4.984,-33.3453860882815
4.99,-33.3704205340463
4.996,-33.3959976363711
5.002,-33.4221253888057
5.008,-33.4488101816678
5.014,-33.476056836011
5.02,-33.5038686424712
5.026,-33.532247404583
5.032,-33.561193486145
5.038,-33.5907058622096
5.044,-33.6207821732686
5.05,-33.6514187822081
5.056,-33.6826108336086
5.062,-33.7143523149767
5.068,-33.7466361195002
5.074,-33.7794541099368
5.08,-33.8127971832562
5.086,-33.8466553356777
5.092,-33.8810177277601
5.098,-33.9158727492238
5.104,-33.9512080832072
5.11,-33.9870107696785
5.116,-34.0232672677524
5.122,-34.0599635166806
5.128,-34.0970849953095
5.134,-34.1346167798259
5.14,-34.1725435996273
5.146,-34.2108498911844
5.152,-34.2495198497782
5.158,-34.2885374790206
5.164,-34.3278866380835
5.17,-34.3675510865832
5.176,-34.4075145270828
5.182,-34.447760645193
5.188,-34.4882731472675
5.194,-34.5290357957003
5.2,-34.5700324418498
5.206,-34.6112470566208
5.212,-34.6526637587497
5.218,-34.6942668408456
5.224,-34.7360407932462
5.23,-34.7779703257582
5.236,-34.8200403873517
5.242,-34.8622361838895
5.248,-34.9045431939677
5.254,-34.9469471829556
5.26,-34.9894342153165
5.266,-35.0319906652984
5.272,-35.0746032260805
5.278,-35.1172589174628
5.284,-35.1599450921849
5.29,-35.2026494409593
5.296,-35.2453599963032
5.302,-35.28806513525
5.308,-35.3307535810198
5.314,-35.3734144037279
5.32,-35.4160370202031
5.326,-35.4586111929897
5.332,-35.5011270286011
5.338,-35.543574975091
5.344,-35.5859458190039
5.35,-35.6282306817665
5.356,-35.6704210155745
5.362,-35.7125085988291
5.368,-35.7544855311731
5.374,-35.7963442281745
5.38,-35.8380774157011
5.386,-35.8796781240282
5.392,-35.9211396817172
5.398,-35.9624557093029
5.404,-36.0036201128202
5.41,-36.0446270772036
5.416,-36.0854710595864
5.422,-36.126146782527
5.428,-36.1666492271851
5.434,-36.2069736264713
5.44,-36.2471154581887
5.446,-36.2870704381867
5.452,-36.3268345135409
5.458,-36.3664038557772
5.464,-36.4057748541509
5.47,-36.4449441089941
5.476,-36.4839084251423
5.482,-36.522664805448
5.488,-36.5612104443927
5.494,-36.5995427218009
5.5,-36.6376591966651
5.506,-36.6663749513921
5.512,-36.6954842221418
5.518,-36.7249659057506
5.524,-36.7547984743966
5.53,-36.7849600014487
5.536,-36.815428187794
5.542,-36.8461803885799
5.548,-36.8771936403075
5.554,-36.9084446882143
5.56,-36.9399100138871
5.566,-36.9715658630462
5.572,-37.0033882734456
5.578,-37.035353102834
5.584,-37.0674360569261
5.59,-37.099612717334
5.596,-37.1318585694115
5.602,-37.1641490299667
5.608,-37.1964594748005
5.614,-37.2287652660297
5.62,-37.2610417791586
5.626,-37.293264429861
5.632,-37.3254087004403
5.638,-37.3574501659357
5.644,-37.3893645198437
5.65,-37.4211275994277
5.656,-37.4527154105889
5.662,-37.4841041522724
5.668,-37.5152702403869
5.674,-37.5461903312136
5.68,-37.576841344284
5.686,-37.6072004847066
5.692,-37.6372452649226
5.698,-37.666953525873
5.704,-37.6963034575578
5.71,-37.7252736189731
5.716,-37.7538429574063
5.722,-37.7819908270761
5.728,-37.8096970071014
5.734,-37.8369417187832
5.74,-37.8637056421863
5.746,-37.8899699320066
5.752,-37.9157162327107
5.758,-37.9409266929339
5.764,-37.965583979126
5.77,-37.9896712884319
5.776,-38.0131723607964
5.782,-38.0360714902826
5.788,-38.0583535355943
5.794,-38.0800039297942
5.8,-38.1010086892098
5.806,-38.12135442152
5.812,-38.1410283330169
5.818,-38.1600182350396
5.824,-38.1783125495746
5.83,-38.1959003140238
5.836,-38.2127711851373
5.842,-38.2289154421147
5.848,-38.2443239888757
5.854,-38.2589883555063
5.86,-38.2729006988856
5.866,-38.2860538025022
5.872,-38.2984410754699
5.878,-38.3100565507532
5.884,-38.3208948826183
5.89,-38.3309513433228
5.896,-38.3402218190624
5.902,-38.3487028051928
5.908,-38.3563914007479
5.914,-38.3632853022766
5.92,-38.3693827970214
5.926,-38.3746827554647
5.932,-38.3791846232696
5.938,-38.3828884126437
5.944,-38.3857946931544
5.95,-38.3879045820271
5.956,-38.3892197339577
5.962,-38.3897423304715
5.968,-38.3894750688619
5.974,-38.3884211507427
5.98,-38.3865842702481
5.986,-38.3839686019154
5.992,-38.380578788284
5.998,-38.3764199272471
6.004,-38.3714975591895
6.01,-38.3658176539463
6.016,-38.3593865976169
6.022,-38.3522111792677
6.028,-38.3442985775559
6.034,-38.3356563473078
6.04,-38.3262924060814
6.046,-38.3162150207459
6.052,-38.3054327941041
6.058,-38.2939546515904
