"Freq [GHz]","dB(St(2,2)) []"
1,1.47645269296499
1.006,1.49284609163275
1.012,1.49293189461596
1.018,1.48216348037631
1.024,1.46470113040608
1.03,1.44362543742587
1.036,1.421150495807
1.042,1.39881549158636
1.048,1.37764520339671
1.054,1.35827532353864
1.06,1.34102891897029
1.066,1.32574899475444
1.072,1.31685485511427
1.078,1.30499002414995
1.084,1.29703354424275
1.09,1.2912909492548
1.096,1.28747693200728
1.102,1.28537205214821
1.108,1.28477048639576
1.114,1.28547532889407
1.12,1.28729998424243
1.126,1.29007101558745
1.132,1.29363603108949
1.138,1.29796326570072
1.144,1.30218568886526
1.15,1.30731656384569
1.156,1.31260611068517
1.162,1.3180337259424
1.168,1.32352194700054
1.174,1.3289974741222
1.18,1.33439552093252
1.186,1.33965957475705
1.192,1.34473921783339
1.198,1.34958281520195
1.204,1.35409537377922
1.21,1.35650224348599
1.216,1.36334154037602
1.222,1.36693969726882
1.228,1.37040694546351
1.234,1.37361625741336
1.24,1.37654901761139
1.246,1.37920516315642
1.252,1.38159175415427
1.258,1.38372013220271
1.264,1.38560529307991
1.27,1.38726779520314
1.276,1.38875381870827
1.282,1.38916846461604
1.288,1.39086299587014
1.294,1.39179817245299
1.3,1.39256969903263
1.306,1.39321441573199
1.312,1.39375540108482
1.318,1.39421294284902
1.324,1.39460616348344
1.33,1.39495336905036
1.336,1.39527211462754
1.342,1.39557919327641
1.348,1.39589060556537
1.354,1.3962215280528
1.36,1.39658628707249
1.366,1.39699833984892
1.372,1.39747026327887
1.378,1.39801375001918
1.384,1.3986396112368
1.39,1.39935778527639
1.396,1.40017735148539
1.402,1.40110654846183
1.408,1.40215279603499
1.414,1.40332272034296
1.42,1.40462218142687
1.426,1.40605630281857
1.432,1.40762950265237
1.438,1.40934552588324
1.444,1.41120747724226
1.45,1.41321785460457
1.456,1.41537858248684
1.462,1.41769104542854
1.468,1.42015612104616
1.474,1.42277421258047
1.48,1.42554528078513
1.486,1.42846887503041
1.492,1.43154416351841
1.498,1.43476996252623
1.504,1.4381447646119
1.51,1.44166676573342
1.516,1.44533389124549
1.522,1.44914382075068
1.528,1.45309401179251
1.534,1.45718172238726
1.54,1.46140403239933
1.546,1.4657578637716
1.552,1.47023999962832
1.558,1.47484710227293
1.564,1.47962485552016
1.57,1.48467317889695
1.576,1.48984992240779
1.582,1.49515844600451
1.588,1.50060142753708
1.594,1.50618097036386
1.6,1.51189869720732
1.606,1.5177558319586
1.612,1.52375327092845
1.618,1.52989164485946
1.624,1.5361713728529
1.63,1.54259270922153
1.636,1.54915578415434
1.642,1.55586063896879
1.648,1.56270725662929
1.654,1.56969558812514
1.66,1.57682557522604
1.666,1.58409717006706
1.672,1.59151035195609
1.678,1.5990651417447
1.684,1.60676161405649
1.69,1.61459990762455
1.696,1.62258023395014
1.702,1.63070288445729
1.708,1.63896823628103
1.714,1.64737675678794
1.72,1.65592900688487
1.726,1.66462564311997
1.732,1.67346741851433
1.738,1.68245518197218
1.744,1.69158987598707
1.75,1.70087253216363
1.756,1.71030426376127
1.762,1.71988625395306
1.768,1.72961973761688
1.774,1.73950597292509
1.78,1.74954619612985
1.786,1.75974154737531
1.792,1.7700929439497
1.798,1.78060085237158
1.804,1.79126485132777
1.81,1.80208272187571
1.816,1.81304833815296
1.822,1.82414599563904
1.828,1.83533141243981
1.834,1.84643940172292
1.84,1.85609726753837
1.846,1.87521749933882
1.852,1.8846146042825
1.858,1.89641256401356
1.864,1.90869702819141
1.87,1.92127446046698
1.876,1.93409608515408
1.882,1.94714582760915
1.888,1.96041846201129
1.894,1.97391327235361
1.9,1.98763173845515
1.906,2.00157655134325
1.912,2.01575114546133
1.918,2.03015945721352
1.924,2.04480579212656
1.93,2.05969474808051
1.936,2.07483116927012
1.942,2.09022011788287
1.948,2.10586685644764
1.954,2.12177683686473
1.96,2.13795569377098
1.966,2.154409240813
1.972,2.17114346893562
1.978,2.1881645461128
1.984,2.20547881814505
1.99,2.22309281027266
1.996,2.24101322943439
2.002,2.2592469670547
2.008,2.27780110227863
2.014,2.29668290559809
2.02,2.31589984283051
2.026,2.3354595794231
2.032,2.35536998506479
2.038,2.37563913859458
2.044,2.39627533319954
2.05,2.4172870818999
2.056,2.43868312332117
2.062,2.46047242775565
2.068,2.48266420351768
2.074,2.50526790359837
2.08,2.5282932326269
2.086,2.55175015414678
2.092,2.57564889821629
2.098,2.59999996934357
2.104,2.6248141547673
2.11,2.65010253309536
2.116,2.67587648331399
2.122,2.70214769418152
2.128,2.72896897005261
2.134,2.7563666976932
2.14,2.78432123524113
2.146,2.81285031816984
2.152,2.8419722326771
2.158,2.87170584106448
2.164,2.90207060820655
2.17,2.93308662909169
2.176,2.96477465738598
2.182,2.99715613492566
2.188,3.03025322197821
2.194,3.06408882801487
2.2,3.09868664259426
2.206,3.13407116574335
2.212,3.17026773689874
2.218,3.20730256097546
2.224,3.2452027293556
2.23,3.28399623235226
2.236,3.32371195768373
2.242,3.36437966609979
2.248,3.40602992942503
2.254,3.44869400573421
2.26,3.49240360664065
2.266,3.53719047294895
2.272,3.58308559449732
2.278,3.63011773133662
2.284,3.67831046244685
2.29,3.72767583664959
2.296,3.77819918892205
2.302,3.82979688772593
2.308,3.88216836720863
2.314,3.93402663278454
2.32,3.97282595458636
2.326,4.06359382794115
2.332,4.12279295574089
2.338,4.18230745783478
2.344,4.24461552628096
2.35,4.30916799768718
2.356,4.37582153939064
2.362,4.44456103940542
2.368,4.51542155335959
2.374,4.58846222900925
2.38,4.66375575108507
2.386,4.74138255232502
2.392,4.82142365644272
2.398,4.90393193211615
2.404,4.98846019311481
2.41,5.07813129429276
2.416,5.16866179240833
2.422,5.26249396611972
2.428,5.35952453724583
2.434,5.45986670063122
2.44,5.56366541125701
2.446,5.67108043501986
2.452,5.78228312072326
2.458,5.89745574898452
2.464,6.01679156004874
2.47,6.14049496718648
2.476,6.26878176714007
2.482,6.40187922734786
2.488,6.54002592098292
2.494,6.68347112098579
2.5,6.83247343045596
2.506,6.98729803859461
2.512,7.14821133134663
2.518,7.31546995253878
2.524,7.48929718092975
2.53,7.66983077750216
2.536,7.85708297746902
2.542,8.05378972890917
2.548,8.27385364266147
2.554,8.48378404769143
2.56,8.70253050265212
2.566,8.9309246068593
2.572,9.16828133506899
2.578,9.4141301926821
2.584,9.66789908237207
2.59,9.92873115977834
2.596,10.1953311030162
2.602,10.4657962035528
2.608,10.7374158677998
2.614,11.0064354058166
2.62,11.2677920437234
2.626,11.5148494088963
2.632,11.7391846210912
2.638,11.9305187828556
2.644,12.0769174738195
2.65,12.1653987339698
2.656,12.1830344713747
2.662,12.118486560796
2.668,11.9637004280283
2.674,11.7152907704581
2.68,11.3751471315057
2.686,10.9500311526028
2.692,10.4503184046333
2.698,9.88832614228339
2.704,9.27671357097991
2.71,8.62727892957871
2.716,7.95025413159217
2.722,7.2540334360296
2.728,6.545203242584
2.734,5.82874132303333
2.74,5.10828699709889
2.746,4.38642148582158
2.752,3.66492758387173
2.758,2.94501744775507
2.764,2.22752854509195
2.77,1.51309341865354
2.776,0.802291190661654
2.782,0.0957891836262333
2.788,-0.605517526420637
2.794,-1.30036211697277
2.8,-1.9869532995762
2.806,-2.66281323863106
2.812,-3.32461135455241
2.818,-3.96800825704292
2.824,-4.58753667288682
2.83,-5.17656161318062
2.836,-5.72737644607792
2.842,-6.23149692799251
2.848,-6.68019942429556
2.854,-7.0653010384903
2.86,-7.38009819476366
2.866,-7.6202899550053
2.872,-7.78465988419772
2.878,-7.87532122405545
2.884,-7.89745003210379
2.89,-7.85858822399062
2.896,-7.7677150358474
2.902,-7.63431199916654
2.908,-7.46759110101039
2.914,-7.27596485791835
2.92,-7.06675664449191
2.926,-6.84610194307932
2.932,-6.61897492380294
2.938,-6.38927682020733
2.944,-6.15992676894886
2.95,-5.93288167518176
2.956,-5.70894895914845
2.962,-5.48758980130192
2.968,-5.29489963543702
2.974,-5.1733682830684
2.98,-4.96326306401439
2.986,-4.77472483850529
2.992,-4.6012789581138
2.998,-4.43982927699554
3.004,-4.28928332561252
3.01,-4.14915690483107
3.016,-4.01917459998767
3.022,-3.89913786407108
3.028,-3.78887528933771
3.034,-3.68822191536727
3.04,-3.59700992316145
3.046,-3.51506414700742
3.052,-3.44219975348722
3.058,-3.37822096114919
3.064,-3.32292031045026
3.07,-3.27607827148174
3.076,-3.23746310063358
3.082,-3.20683091122034
3.088,-3.18392594439258
3.094,-3.16848103263342
3.1,-3.16021824713283
3.106,-3.15884971651391
3.112,-3.16407859988798
3.118,-3.17560019313202
3.124,-3.19310314414102
3.13,-3.21627075082854
3.136,-3.24478231486039
3.142,-3.27831452443003
3.148,-3.31654284067186
3.154,-3.35914286437442
3.16,-3.40579166230294
3.166,-3.45616903546652
3.172,-3.50995871488861
3.178,-3.56684947369118
3.184,-3.62653614744942
3.19,-3.68872055770291
3.196,-3.75311233614485
3.202,-3.81942964929992
3.208,-3.88739982541974
3.214,-3.95675988686637
3.22,-4.02725699243356
3.226,-4.09864879489745
3.232,-4.17070371962828
3.238,-4.24320117037418
3.244,-4.31593166838905
3.25,-4.38869693096404
3.256,-4.45936884202665
3.262,-4.52973251655329
3.268,-4.59960238278329
3.274,-4.66880310321095
3.28,-4.7371698660392
3.286,-4.80454859354322
3.292,-4.87079607294938
3.298,-4.93578001543212
3.304,-4.99937904875784
3.31,-5.0614826489832
3.316,-5.12199101646352
3.322,-5.18081490125934
3.328,-5.23787538285613
3.334,-5.29310360894002
3.34,-5.34644049780536
3.346,-5.397836408809
3.352,-5.4472507851313
3.358,-5.49465177295258
3.364,-5.5400158210049
3.37,-5.58332726430783
3.376,-5.62457789574245
3.382,-5.66376652895626
3.388,-5.70089855592155
3.394,-5.73598550228926
3.4,-5.76904458348973
3.406,-5.80009826432961
3.412,-5.82917382462245
3.418,-5.85630293317015
3.424,-5.88152123218479
3.43,-5.90486793400871
3.436,-5.92638543175616
3.442,-5.94611892526641
3.448,-5.96411606352732
3.454,-5.98042660450352
3.46,-5.99510209308611
3.466,-6.00819555767399
3.472,-6.01976122570159
3.478,-6.02985425824651
3.484,-6.03853050368284
3.49,-6.04584627019422
3.496,-6.05185811682425
3.502,-6.05662266262108
3.508,-6.06019641332732
3.514,-6.06263560497627
3.52,-6.0639960636783
3.526,-6.06433308081781
3.532,-6.06370130282912
3.538,-6.06215463467773
3.544,-6.05974615614056
3.55,-6.05652804995302
3.556,-6.05255154086964
3.562,-6.04786684466843
3.568,-6.04252312611252
3.574,-6.03656846486639
3.58,-6.03004982834352
3.586,-6.02301305043663
3.592,-6.0155028150468
3.598,-6.0075626432809
3.604,-5.9992348831242
3.61,-5.99056070031205
3.616,-5.98158006901586
3.622,-5.97233176081905
3.628,-5.96285333027918
3.634,-5.95318109514573
3.64,-5.94335010901714
3.646,-5.93339412386284
3.652,-5.9233455393898
3.658,-5.91323533567918
3.664,-5.90309298483187
3.67,-5.89294633651364
3.676,-5.8828214712441
3.682,-5.87274251398588
3.688,-5.86273139900733
3.694,-5.85280757505188
3.7,-5.842987637473
3.706,-5.83328487109983
3.712,-5.82370868408431
3.718,-5.81426390873608
3.724,-5.80494994026303
3.73,-5.79575967829429
3.736,-5.78667822898727
3.742,-5.77768131739272
3.748,-5.7687333506707
3.754,-5.75978506303331
3.76,-5.75077066361348
3.766,-5.7416044000926
3.772,-5.7321764460634
3.778,-5.72234802238541
3.784,-5.71194567796023
3.79,-5.70075469221384
3.796,-5.68851163311598
3.802,-5.67489622918877
3.808,-5.65952291634984
3.814,-5.64193273125655
3.82,-5.62158667546419
3.826,-5.59786229627891
3.832,-5.57005602239697
3.838,-5.53739469758096
3.844,-5.49906060479572
3.85,-5.4542347226951
3.856,-5.40216243912564
3.862,-5.34224370023607
3.868,-5.27414484450003
3.874,-5.19792188474752
3.88,-5.11413568356513
3.886,-5.02393108979808
3.892,-4.92904917322562
3.898,-4.83174884176228
3.904,-4.73463303873754
3.91,-4.64040126066283
3.916,-4.55157440481385
3.922,-4.47024876205412
3.928,-4.39792756687853
3.934,-4.33545456881078
3.94,-4.28304547669122
3.946,-4.24039127594248
3.952,-4.206798355839
3.958,-4.18133328566272
3.964,-4.16294991070421
3.97,-4.15058769512584
3.976,-4.14323930422976
3.982,-4.13999100876266
3.988,-4.14004193332552
3.994,-4.14270845372847
4,-4.1474191836156
4.006,-4.15370471732937
4.012,-4.1611850437926
4.018,-4.1695565086593
4.024,-4.17857942777565
4.03,-4.18806692052126
4.036,-4.19787518691851
4.042,-4.20789524534641
4.048,-4.21804603414154
4.054,-4.22826872685159
4.06,-4.23852209380816
4.066,-4.24877874621007
4.072,-4.25902211297718
4.078,-4.26924401910648
4.084,-4.27944275359306
4.09,-4.28962153327275
4.096,-4.29978728530911
4.102,-4.30994968518147
4.108,-4.32012039895347
4.114,-4.33031248849384
4.12,-4.34053994643458
4.126,-4.35081733424821
4.132,-4.3611595021576
4.138,-4.37158137388056
4.144,-4.38209778265147
4.15,-4.39272334771378
4.156,-4.40347238267615
4.162,-4.41435882887924
4.168,-4.42539620831974
4.174,-4.43659759179421
4.18,-4.44797557881486
4.186,-4.45954228655895
4.192,-4.47130934567985
4.198,-4.48328790125865
4.204,-4.49548861753634
4.21,-4.50792168535372
4.216,-4.52059683145641
4.222,-4.5335233290056
4.228,-4.54671000878181
4.234,-4.56016527068631
4.24,-4.57389709523803
4.246,-4.58791305483886
4.252,-4.60222032463957
4.258,-4.61682569288663
4.264,-4.63173557066757
4.27,-4.64695600100332
4.276,-4.66249266725967
4.282,-4.67835090086925
4.288,-4.69453568837055
4.294,-4.71105167778255
4.3,-4.72790318434283
4.306,-4.74509419564467
4.312,-4.76262837621433
4.318,-4.78050907157402
4.324,-4.79873931183996
4.33,-4.81732181490676
4.336,-4.83625898927202
4.342,-4.8555529365556
4.348,-4.87520545376921
4.354,-4.89521803539206
4.36,-4.91559187530854
4.366,-4.93632786866315
4.372,-4.95742661368759
4.378,-4.97888841355357
4.384,-5.0007132783041
4.39,-5.02290092691389
4.396,-5.04545078952824
4.402,-5.06836200992719
4.408,-5.0916334482599
4.414,-5.1152636840909
4.42,-5.13925101979762
4.426,-5.16359348435487
4.432,-5.18828883753881
4.438,-5.21333457457912
4.444,-5.23872793128403
4.45,-5.26446588965892
4.456,-5.29054518403437
4.462,-5.31696230771538
4.468,-5.34371352015827
4.474,-5.3707948546772
4.48,-5.39820212667684
4.486,-5.42593094240296
4.492,-5.45397670819719
4.498,-5.48233464023746
4.504,-5.51099977474003
4.51,-5.53996697859455
4.516,-5.56923096039828
4.522,-5.59878628185121
4.528,-5.62862736946929
4.534,-5.65874852656875
4.54,-5.68914394547102
4.546,-5.71980771987377
4.552,-5.75073385733105
4.558,-5.78191629178285
4.564,-5.81334889607195
4.57,-5.84502549438494
4.576,-5.87693987455271
4.582,-5.90908580014553
4.588,-5.94145702229783
4.594,-5.97404729119825
4.6,-6.00685036718204
4.606,-6.03986003136428
4.612,-6.07307009575475
4.618,-6.10647441279829
4.624,-6.1400668842873
4.63,-6.17384146959711
4.636,-6.20779219319889
4.642,-6.24191315140923
4.648,-6.27619851834038
4.654,-6.31064255102019
4.66,-6.34523959365604
4.666,-6.37998408102253
4.672,-6.4148705409583
4.678,-6.44989359596281
4.684,-6.4850479638898
4.69,-6.52032845773947
4.696,-6.55572998455707
4.702,-6.59124754345085
4.708,-6.62687622274749
4.714,-6.66261119630812
4.72,-6.69844771903269
4.726,-6.73438112158473
4.732,-6.77040680437286
4.738,-6.80652023082892
4.744,-6.84271692002604
4.75,-6.87899243868319
4.756,-6.91534239260506
4.762,-6.95176241760884
4.768,-6.98824816999098
4.774,-7.02479531658892
4.78,-7.06139952449382
4.786,-7.0980564504711
4.792,-7.13476173014658
4.798,-7.17151096701559
4.804,-7.20829972133303
4.81,-7.24512349894158
4.816,-7.28197774009498
4.822,-7.31885780833231
4.828,-7.35575897945843
4.834,-7.39267643068429
4.84,-7.42960522997981
4.846,-7.46654032569035
4.852,-7.50347653646607
4.858,-7.54040854155232
4.864,-7.57733087148674
4.87,-7.61423789924728
4.876,-7.6511238318936
4.882,-7.6879827027419
4.888,-7.72480836411148
4.894,-7.7615944806795
4.9,-7.79833452347801
4.906,-7.83502176456532
4.912,-7.87164927240213
4.918,-7.90820990796
4.924,-7.94469632158827
4.93,-7.9811009506631
4.936,-8.01741601804027
4.942,-8.05363353133101
4.948,-8.08974528301818
4.954,-8.12574285142775
4.96,-8.16161760256819
4.966,-8.1973606928482
4.972,-8.23296307268072
4.978,-8.26841549097878
4.984,-8.30370850054623
4.99,-8.3388324643639
4.996,-8.37377756276898
5.002,-8.40853380152283
5.008,-8.44309102075967
5.014,-8.47743890480557
5.02,-8.51156699285456
5.026,-8.54546469048529
5.032,-8.57912128199899
5.038,-8.61252594355624
5.044,-8.6456677570867
5.05,-8.67853572494312
5.056,-8.7111187852674
5.062,-8.74340582803346
5.068,-8.77538571172818
5.074,-8.80704728062886
5.08,-8.83837938263192
5.086,-8.86937088758492
5.092,-8.9000107060708
5.098,-8.93028780858989
5.104,-8.96019124508337
5.11,-8.98971016473801
5.116,-9.01883383601065
5.122,-9.04755166680778
5.128,-9.07585322475409
5.134,-9.10372825748177
5.14,-9.13116671287099
5.146,-9.15815875917068
5.152,-9.18469480492803
5.158,-9.2107655186544
5.164,-9.23636184815535
5.17,-9.26147503945267
5.176,-9.28609665522678
5.182,-9.31021859270913
5.188,-9.33383310095547
5.194,-9.35693279743269
5.2,-9.37951068385433
5.206,-9.40156016120233
5.212,-9.42307504387573
5.218,-9.44404957291046
5.224,-9.46447842821807
5.23,-9.48435673979537
5.236,-9.50368009786158
5.242,-9.52244456188403
5.248,-9.54064666845863
5.254,-9.55828343801661
5.26,-9.5753523803341
5.266,-9.59185149882709
5.272,-9.6077792936196
5.278,-9.6231347633788
5.284,-9.63791740591652
5.29,-9.65212721756226
5.296,-9.66576469131843
5.302,-9.67883081381419
5.308,-9.69132706107957
5.314,-9.70325539316673
5.32,-9.71461824765025
5.326,-9.72541853204305
5.332,-9.73565961516886
5.338,-9.74534531753654
5.344,-9.75447990076484
5.35,-9.76306805611008
5.356,-9.77111489215199
5.362,-9.77862592169549
5.368,-9.78560704794862
5.374,-9.79206455003846
5.38,-9.79800506792839
5.386,-9.80343558680085
5.392,-9.80836342097056
5.398,-9.81279619739319
5.404,-9.81674183883422
5.41,-9.8202085467624
5.416,-9.82320478403109
5.422,-9.82573925740961
5.428,-9.82782090002517
5.434,-9.82945885377418
5.44,-9.83066245175967
5.446,-9.83144120080908
5.452,-9.83180476412452
5.458,-9.83176294411459
5.464,-9.83132566545421
5.47,-9.83050295841596
5.476,-9.82930494251342
5.482,-9.82774181049377
5.488,-9.82582381271405
5.494,-9.82356124193198
5.5,-9.82096441853942
5.506,-9.8187883601084
5.512,-9.81620893909174
5.518,-9.81323605575531
5.524,-9.80988006018982
5.53,-9.80615171649301
5.536,-9.80206216591789
5.542,-9.79762288922968
5.548,-9.79284566851324
5.554,-9.7877425486701
5.56,-9.78232579883859
5.566,-9.77660787396356
5.572,-9.77060137673227
5.578,-9.76431902008248
5.584,-9.75777359047576
5.59,-9.75097791211519
5.596,-9.74394481227173
5.602,-9.73668708786762
5.608,-9.72921747344884
5.614,-9.72154861066194
5.62,-9.7136930193336
5.626,-9.70566307023467
5.632,-9.69747095959366
5.638,-9.68912868540867
5.644,-9.68064802559145
5.65,-9.67204051796193
5.656,-9.66331744209832
5.662,-9.65448980303415
5.668,-9.64556831678215
5.674,-9.63656339765335
5.68,-9.62748514733038
5.686,-9.61834334564466
5.692,-9.60914744299966
5.698,-9.59990655437589
5.704,-9.59062945484732
5.71,-9.58132457653476
5.716,-9.57200000691788
5.722,-9.56266348842491
5.728,-9.55332241921747
5.734,-9.54398385508662
5.74,-9.5346545123763
5.746,-9.52534077185044
5.752,-9.51604868342126
5.758,-9.50678397165766
5.764,-9.49755204199467
5.77,-9.48835798756712
5.776,-9.4792065965939
5.782,-9.47010236024158
5.788,-9.46104948089991
5.794,-9.45205188080473
5.8,-9.44311321094774
5.806,-9.43423686021584
5.812,-9.42542596470656
5.818,-9.41668341716996
5.824,-9.40801187653052
5.83,-9.39941377744671
5.836,-9.39089133986905
5.842,-9.38244657856102
5.848,-9.37408131255056
5.854,-9.36579717448293
5.86,-9.35759561984891
5.866,-9.3494779360652
5.872,-9.34144525138642
5.878,-9.33349854363115
5.884,-9.32563864870641
5.89,-9.31786626891769
5.896,-9.31018198105345
5.902,-9.30258624423525
5.908,-9.2950794075263
5.914,-9.28766171729305
5.92,-9.28033332431597
5.926,-9.27309429064697
5.932,-9.26594459621229
5.938,-9.25888414516091
5.944,-9.25191277195934
5.95,-9.24503024723493
5.956,-9.23823628337019
5.962,-9.23153053985197
5.968,-9.22491262837923
5.974,-9.21838211773442
5.98,-9.21193853842347
5.986,-9.20558138708989
5.992,-9.19931013070906
5.998,-9.19312421056863
6.004,-9.18702304604165
6.01,-9.18100603815883
6.016,-9.17507257298656
6.022,-9.16922202481764
6.028,-9.16345375918124
6.034,-9.15776713567909
6.04,-9.15216151065461
6.046,-9.14663623970159
6.052,-9.14119068001929
6.058,-9.13582419262033
6.064,-9.13053614439789
6.07,-9.1253259100586
6.076,-9.12019287392717
6.082,-9.115136431629
6.088,-9.11015599165643
6.094,-9.10525097682458
6.1,-9.10042082562216
6.106,-9.0956649934627
6.112,-9.09098295384145
6.118,-9.08637419940291
6.124,-9.08183824292386
6.13,-9.0773746182166
