"Freq [GHz]","dB(St(8,8)) []"
1,-4.58242105184528
1.006,-5.04440419825548
1.012,-5.49124710752993
1.018,-5.91422232811262
1.024,-6.30720603993302
1.03,-6.66626998643323
1.036,-6.98924304831014
1.042,-7.27530676733764
1.048,-7.52465152889155
1.054,-7.73819984269611
1.06,-7.91739854764017
1.066,-8.06415394900489
1.072,-8.17863391770753
1.078,-8.26679611574282
1.084,-8.32790852393276
1.09,-8.3647737619859
1.096,-8.37957340534467
1.102,-8.37440148888732
1.108,-8.35127098476933
1.114,-8.31210480500588
1.12,-8.25872740448317
1.126,-8.19285805484822
1.132,-8.11610289884949
1.138,-8.02989161966417
1.144,-7.93607101892162
1.15,-7.83521922663188
1.156,-7.72891090734309
1.162,-7.6181719203498
1.168,-7.50397122106117
1.174,-7.38718709299209
1.18,-7.26860904573803
1.186,-7.14894294150358
1.192,-7.028817773388
1.198,-6.90879685786256
1.204,-6.78941877591336
1.21,-6.67260128301158
1.216,-6.55310240304425
1.222,-6.43778319977173
1.228,-6.32424135954007
1.234,-6.21280284187056
1.24,-6.1036652986286
1.246,-5.99697844646544
1.252,-5.8928571392763
1.258,-5.79138684325252
1.264,-5.69262695267832
1.27,-5.59661158762863
1.276,-5.50333358835492
1.282,-5.41363040929458
1.288,-5.32535812170129
1.294,-5.24037447451197
1.3,-5.15811800533655
1.306,-5.07852914276295
1.312,-5.00155319314151
1.318,-4.92713146973664
1.324,-4.8552008442379
1.33,-4.7856943541778
1.336,-4.71854196804246
1.342,-4.65367132786677
1.348,-4.59100842566304
1.354,-4.53047820470888
1.36,-4.4720050871594
1.366,-4.41551343282968
1.372,-4.36092793500356
1.378,-4.30817395925358
1.384,-4.25717783103843
1.39,-4.207867077488
1.396,-4.16017062838172
1.402,-4.11401898091237
1.408,-4.06934433242491
1.414,-4.02608068493592
1.42,-3.98416392487862
1.426,-3.94353188118242
1.432,-3.90412436448538
1.438,-3.86588318999097
1.444,-3.82875218621827
1.45,-3.79267719165383
1.456,-3.75760604109482
1.462,-3.72348854327309
1.468,-3.69027645116962
1.474,-3.65792342626488
1.48,-3.62638499782297
1.486,-3.59561851817462
1.492,-3.56558311484431
1.498,-3.53623964025985
1.504,-3.50755061968645
1.51,-3.47948019794218
1.516,-3.45199408537472
1.522,-3.42505950351196
1.528,-3.39864513073856
1.534,-3.37272104829713
1.54,-3.34725868686577
1.546,-3.32223077392222
1.552,-3.29761128206809
1.558,-3.27337537845503
1.564,-3.24939646020433
1.57,-3.22551458329136
1.576,-3.20203140859995
1.582,-3.17889675417237
1.588,-3.15606739619044
1.594,-3.13350585293993
1.6,-3.11117940694977
1.606,-3.08905931437053
1.612,-3.06712016228814
1.618,-3.04533934352696
1.624,-3.0236966252536
1.63,-3.00217379286358
1.636,-2.9807543546048
1.642,-2.95942329545568
1.648,-2.93816687115015
1.654,-2.91697243509192
1.66,-2.89582829234817
1.666,-2.87472357605332
1.672,-2.85364814245647
1.678,-2.83259248156619
1.684,-2.81154764092516
1.69,-2.79050516051688
1.696,-2.76945701719399
1.702,-2.74839557734225
1.708,-2.72731355677648
1.714,-2.70620398711859
1.72,-2.68506018815399
1.726,-2.66387574591886
1.732,-2.64264449656555
1.738,-2.62136051642565
1.744,-2.60001811920142
1.75,-2.57861186196906
1.756,-2.5571365628491
1.762,-2.53558733510853
1.768,-2.51395964570624
1.774,-2.49224941204583
1.78,-2.47045316135105
1.786,-2.44856829778988
1.792,-2.4265935650785
1.798,-2.40452988598215
1.804,-2.38238198344727
1.81,-2.36016177659414
1.816,-2.33789630930227
1.822,-2.31564926565897
1.828,-2.29359404892763
1.834,-2.27237821004072
1.84,-2.25779011592541
1.846,-2.20892759672954
1.852,-2.19409222024391
1.858,-2.17227234104744
1.864,-2.14930491566506
1.87,-2.12584051973046
1.876,-2.10205331659765
1.882,-2.07800742330351
1.888,-2.05373027600352
1.894,-2.02923421586543
1.9,-2.0045244427738
1.906,-1.97960242427708
1.912,-1.95446752613094
1.918,-1.92911786042832
1.924,-1.90355075710944
1.93,-1.87776304076347
1.936,-1.85175120074478
1.942,-1.82551149995012
1.948,-1.79904004687493
1.954,-1.77233284492317
1.96,-1.74538582721425
1.966,-1.71819488191625
1.972,-1.69075587126629
1.978,-1.663064646318
1.984,-1.63511705876511
1.99,-1.60690897075306
1.996,-1.57843626330835
2.002,-1.54969484382903
2.008,-1.52068065295483
2.014,-1.49138967105048
2.02,-1.46181792447649
2.026,-1.43196149178096
2.032,-1.40181650991656
2.038,-1.37137918056608
2.044,-1.34064577664541
2.05,-1.30961264904179
2.056,-1.27827623363771
2.062,-1.24663305866552
2.068,-1.2146797524337
2.074,-1.1824130514635
2.08,-1.14982980907269
2.086,-1.11692700444253
2.092,-1.08370175220328
2.098,-1.05015131257383
2.104,-1.01627310209133
2.11,-0.982064704967218
2.116,-0.947523885106948
2.122,-0.912648598831562
2.128,-0.877458124532739
2.134,-0.841878944427787
2.14,-0.805856823635379
2.146,-0.76938084473311
2.152,-0.732439798709809
2.158,-0.695022167427398
2.164,-0.657116105896179
2.17,-0.618709424475215
2.176,-0.579789571167889
2.182,-0.540343614263954
2.188,-0.50035822569461
2.194,-0.459819665631595
2.2,-0.418713769098711
2.206,-0.37702593571149
2.212,-0.334741124176539
2.218,-0.291843853959766
2.224,-0.248318217727785
2.23,-0.204147910040485
2.236,-0.1593162807782
2.242,-0.11380642673331
2.248,-0.0676013431755867
2.254,-0.0206841718696578
2.26,0.0269613913194866
2.266,0.0753504155222983
2.272,0.124495566089968
2.278,0.174405020076488
2.284,0.225078554385275
2.29,0.276499701177732
2.296,0.328618594271368
2.302,0.38130990402176
2.308,0.43425237643632
2.314,0.48650363732511
2.32,0.53476790863802
2.326,0.602542075053051
2.332,0.684923539315586
2.338,0.74017070221746
2.344,0.798878547041018
2.35,0.85996715323049
2.356,0.922889490284779
2.362,0.987445765756052
2.368,1.05356999407748
2.374,1.12125456321679
2.38,1.19052052476428
2.386,1.2614030907887
2.392,1.33393863203719
2.398,1.40812338939168
2.404,1.48326045628713
2.41,1.56357049513196
2.416,1.64307371064304
2.422,1.72503734264204
2.428,1.80922730087901
2.434,1.89570132456754
2.44,1.98455586837588
2.446,2.07590259086216
2.452,2.16986367596939
2.458,2.26657072099959
2.464,2.36616460516145
2.47,2.46879569113928
2.476,2.57462414968419
2.482,2.68382032460471
2.488,2.79656510552665
2.494,2.9130503141314
2.5,3.03347917545381
2.506,3.15806710435963
2.512,3.2870434617128
2.518,3.42065617240286
2.524,3.5591851502971
2.53,3.70298612382378
2.536,3.852662948886
2.542,4.00999034119142
2.548,4.18428798911482
2.554,4.34223009217718
2.56,4.50096867216024
2.566,4.67608965273386
2.572,4.85824548340457
2.578,5.04603120341208
2.584,5.2386611248087
2.59,5.43515643243344
2.596,5.63411119447524
2.602,5.83351249258419
2.608,6.03054130006402
2.614,6.22134107513939
2.62,6.40076080904202
2.626,6.56209917408133
2.632,6.69690469275318
2.638,6.79492349993975
2.644,6.8443217218807
2.65,6.83231964177148
2.656,6.74632240452304
2.662,6.5754870808114
2.668,6.31244877267411
2.674,5.95474344283528
2.68,5.50546151608481
2.686,4.97291098087871
2.692,4.36944618995489
2.698,3.70990081079244
2.704,3.01010264242875
2.71,2.28578089644137
2.716,1.55194796777332
2.722,0.822666837016669
2.728,0.111038303007074
2.734,-0.570761520370922
2.74,-1.2115261555457
2.746,-1.80122207223314
2.752,-2.33135834833654
2.758,-2.79545948883774
2.764,-3.18951987244759
2.77,-3.51229593904142
2.776,-3.76532251314693
2.782,-3.95261639340131
2.788,-4.08012158444359
2.794,-4.15501607380454
2.8,-4.18501617306387
2.806,-4.17778538583393
2.812,-4.14050377068572
2.818,-4.07960532750443
2.824,-4.00065892726631
2.83,-3.90835471819359
2.836,-3.80655784980883
2.842,-3.69839829175184
2.848,-3.58637447873267
2.854,-3.4724566637814
2.86,-3.35818211804526
2.866,-3.24473859462343
2.872,-3.1330351305475
2.878,-3.02376074936718
2.884,-2.91743234816607
2.89,-2.81443330915244
2.896,-2.71504437357302
2.902,-2.61946818630688
2.908,-2.52784874325544
2.914,-2.44028679905164
2.92,-2.35685215387442
2.926,-2.27759367547684
2.932,-2.20254801252422
2.938,-2.13174847323538
2.944,-2.06523737497064
2.95,-2.00309211087625
2.956,-1.94550820357761
2.962,-1.89322004816665
2.968,-1.85282039360517
2.974,-1.79588006143047
2.98,-1.74933705947483
2.986,-1.71302497361036
2.992,-1.68061917755178
2.998,-1.65229203066067
3.004,-1.62813432320285
3.01,-1.60818644156979
3.016,-1.59246421749664
3.022,-1.5809683653434
3.028,-1.57368777086663
3.034,-1.57060041833282
3.04,-1.5716733696326
3.046,-1.57686238157377
3.052,-1.58611143295973
3.058,-1.59935230077022
3.064,-1.61650426279146
3.07,-1.63747397127368
3.076,-1.66215552238002
3.082,-1.69043073253858
3.088,-1.72216962238783
3.094,-1.75723110055148
3.1,-1.79546383247866
3.106,-1.83670727386441
3.112,-1.88079284368764
3.118,-1.92754520867439
3.124,-1.97678364900976
3.13,-2.02832347434643
3.136,-2.08197745951267
3.142,-2.13755727068953
3.148,-2.19487485505498
3.154,-2.25374376980504
3.16,-2.31398042987222
3.166,-2.37540525738205
3.172,-2.43784371974143
3.178,-2.50112724707658
3.184,-2.56509402339963
3.19,-2.62958964926882
3.196,-2.69446767674007
3.202,-2.75959002003192
3.208,-2.82482724751441
3.214,-2.8900587623793
3.22,-2.95517288066722
3.226,-3.0200668162429
3.232,-3.08464658285961
3.238,-3.14882682368327
3.244,-3.21253057860021
3.25,-3.27568899936009
3.256,-3.34088940144383
3.262,-3.40497729951198
3.268,-3.46797130246251
3.274,-3.52989159501316
3.28,-3.59075982177568
3.286,-3.65059897741013
3.292,-3.70943330301091
3.298,-3.76728818884105
3.304,-3.82419008349992
3.31,-3.88016640958256
3.316,-3.93524548586521
3.322,-3.98945645603245
3.328,-4.04282922394522
3.334,-4.09539439543711
3.34,-4.14718322661724
3.346,-4.19822757865284
3.352,-4.24855987900244
3.358,-4.29821308907095
3.364,-4.34722067826176
3.37,-4.39561660440689
3.376,-4.44343530056391
3.382,-4.49071166817809
3.388,-4.53748107661857
3.394,-4.58377936910665
3.4,-4.62964287506259
3.406,-4.6751084289002
3.412,-4.72021339529396
3.418,-4.76499570092513
3.424,-4.80949387267424
3.43,-4.85374708215486
3.436,-4.89779519636059
3.442,-4.94167883399625
3.448,-4.98543942674523
3.454,-5.02911928422443
3.46,-5.07276166060142
3.466,-5.11641081964588
3.472,-5.16011209312963
3.478,-5.20391192461642
3.484,-5.24785788623015
3.49,-5.2919986490762
3.496,-5.33638387723283
3.502,-5.38106399848826
3.508,-5.42608977902811
3.514,-5.47151158934709
3.52,-5.51737818847634
3.526,-5.56373476650826
3.532,-5.61061986962405
3.538,-5.6580607073732
3.544,-5.70606629619033
3.55,-5.75461818995874
3.556,-5.80365984532932
3.562,-5.85308929298918
3.568,-5.90276747401807
3.574,-5.95256553147605
3.58,-6.00247600085673
3.586,-6.05277274642844
3.592,-6.1041069870086
3.598,-6.15737829714159
3.604,-6.21339536965134
3.61,-6.2725983214224
3.616,-6.33505307217076
3.622,-6.40063333856322
3.628,-6.46919923410226
3.634,-6.54068856981834
3.64,-6.61513776848774
3.646,-6.69267140145336
3.652,-6.77348519345612
3.658,-6.85783231966362
3.664,-6.94601506838785
3.67,-7.03838123452514
3.676,-7.13532411673583
3.682,-7.23728520763714
3.688,-7.34475900449073
3.694,-7.45829965707948
3.7,-7.57852938667142
3.706,-7.70614877272429
3.712,-7.84194913479173
3.718,-7.98682735430779
3.724,-8.14180359792814
3.73,-8.30804253021043
3.736,-8.48687874443026
3.742,-8.67984729779153
3.748,-8.8887204055651
3.754,-9.11555150803209
3.76,-9.36272802608016
3.766,-9.63303405863878
3.772,-9.9297238197176
3.778,-10.2566052865671
3.784,-10.6181303334031
3.79,-11.0194804534587
3.796,-11.4666215572609
3.802,-11.9662676879867
3.808,-12.5256211158749
3.814,-13.1516008021523
3.82,-13.8489414227732
3.826,-14.6158774665741
3.832,-15.4349596596024
3.838,-16.2554375711414
3.844,-16.9669161582496
3.85,-17.3849168387577
3.856,-17.3082200737906
3.862,-16.6654743819486
3.868,-15.5865057932088
3.874,-14.2881111433157
3.88,-12.9434426684272
3.886,-11.6510580549338
3.892,-10.4567638815166
3.898,-9.37792312090349
3.904,-8.41811041923472
3.91,-7.57437891536746
3.916,-6.8405832767644
3.922,-6.20888208232551
3.928,-5.67048379835755
3.934,-5.21611210859808
3.94,-4.83637263890962
3.946,-4.52206866435182
3.952,-4.26446254008852
3.958,-4.0554701241268
3.964,-3.88778274722052
3.97,-3.75492169417616
3.976,-3.65123756843992
3.982,-3.57186989964396
3.988,-3.51268181229964
3.994,-3.47018204092006
4,-3.44144337546189
4.006,-3.42402358801295
4.012,-3.41589241981549
4.018,-3.41536639127501
4.024,-3.42105197263749
4.03,-3.43179689511109
4.036,-3.44664896153316
4.042,-3.46482152171372
4.048,-3.48566472608426
4.054,-3.50864170267814
4.06,-3.53330887706014
4.066,-3.55929974754045
4.072,-3.58631152392977
4.078,-3.61409412898854
4.084,-3.64244114359574
4.09,-3.67118234805943
4.096,-3.70017757291022
4.102,-3.72931162371744
4.108,-3.7584900870384
4.114,-3.78763585974081
4.12,-3.81668627277379
4.126,-3.84559070404536
4.132,-3.87430859430482
4.138,-3.90280779560491
4.144,-3.93106319468171
4.15,-3.95905556398156
4.156,-3.98677060152776
4.162,-4.01419812771737
4.168,-4.04133141276688
4.174,-4.06816661312302
4.18,-4.09470229891627
4.186,-4.12093905761621
4.192,-4.14687916157694
4.198,-4.17252628923962
4.204,-4.19788529147124
4.21,-4.22296199593066
4.216,-4.24776304351991
4.222,-4.27229575194435
4.228,-4.29656800220597
4.234,-4.32058814451881
4.24,-4.34436492068813
4.246,-4.36790740045521
4.252,-4.39122492969297
4.258,-4.41432708865799
4.264,-4.43722365877108
4.27,-4.45992459662217
4.276,-4.48244001408139
4.282,-4.50478016355382
4.288,-4.52695542754555
4.294,-4.54897631181655
4.3,-4.57085344148624
4.306,-4.59259755953239
4.312,-4.61421952718588
4.318,-4.63573032577493
4.324,-4.65714105961477
4.33,-4.67846295957291
4.336,-4.69970738696857
4.342,-4.72088583748807
4.348,-4.74200994481658
4.354,-4.76309148370294
4.36,-4.78414237218689
4.366,-4.80517467273035
4.372,-4.8262005920045
4.378,-4.8472324790951
4.384,-4.8682828218988
4.39,-4.88936424149484
4.396,-4.91048948428913
4.402,-4.93167141174253
4.408,-4.9529229875122
4.414,-4.9742572618545
4.42,-4.995687353161
4.426,-5.01722642652533
4.432,-5.03888766926843
4.438,-5.06068426338348
4.444,-5.08262935489882
4.45,-5.10473602019825
4.456,-5.12701722938218
4.462,-5.1494858068003
4.468,-5.172154388936
4.474,-5.19503537987422
4.48,-5.21814090463665
4.486,-5.24148276072037
4.492,-5.2650723682274
4.498,-5.28892071902134
4.504,-5.31303832539249
4.51,-5.33743516875356
4.516,-5.36212064892189
4.522,-5.38710353457126
4.528,-5.41239191545401
4.534,-5.43799315700276
4.54,-5.4639138579187
4.546,-5.49015981133953
4.552,-5.51673597015524
4.558,-5.54364641700259
4.564,-5.57089433942061
4.57,-5.59848201059007
4.576,-5.62641077601029
4.582,-5.65468104638837
4.588,-5.6832922969304
4.594,-5.71224307313326
4.6,-5.74153100308155
4.606,-5.77115281615802
4.612,-5.80110436798187
4.618,-5.8313806712971
4.624,-5.86197593244746
4.63,-5.89288359299507
4.636,-5.92409637597008
4.642,-5.9556063361792
4.648,-5.98740491395304
4.654,-6.01948299167697
4.66,-6.05183095242767
4.666,-6.08443874002806
4.672,-6.11729591983672
4.678,-6.15039173960292
4.684,-6.18371518974511
4.69,-6.21725506244708
4.696,-6.25100000901098
4.702,-6.28493859495901
4.708,-6.3190593524328
4.714,-6.35335082950206
4.72,-6.3878016360573
4.726,-6.42240048602736
4.732,-6.45713623572613
4.738,-6.49199791819619
4.744,-6.52697477347627
4.75,-6.56205627477586
4.756,-6.59723215059146
4.762,-6.6324924028453
4.768,-6.66782732116827
4.774,-6.70322749348395
4.78,-6.73868381308008
4.786,-6.77418748237782
4.792,-6.80973001362726
4.798,-6.84530322677145
4.804,-6.88089924472932
4.81,-6.91651048635228
4.816,-6.95212965730975
4.822,-6.98774973915571
4.828,-7.02336397682236
4.834,-7.05896586477872
4.84,-7.09454913208166
4.846,-7.13010772653472
4.852,-7.16563579815718
4.858,-7.20112768215194
4.864,-7.23657788154641
4.87,-7.2719810496659
4.876,-7.30733197258496
4.882,-7.34262555168731
4.888,-7.3778567864517
4.894,-7.41302075756762
4.9,-7.44811261047208
4.906,-7.48312753938715
4.912,-7.51806077192678
4.918,-7.55290755433109
4.924,-7.5876631373773
4.93,-7.62232276300769
4.936,-7.6568816517072
4.942,-7.6913349906568
4.948,-7.72567792268187
4.954,-7.75990553601024
4.96,-7.79401285484885
4.966,-7.82799483078447
4.972,-7.86184633500998
4.978,-7.89556215137452
4.984,-7.92913697025346
4.99,-7.96256538323146
4.996,-7.99584187859031
5.002,-8.02896083759159
5.008,-8.06191653154257
5.014,-8.09470311963319
5.02,-8.12731464753044
5.026,-8.15974504671629
5.032,-8.19198813455417
5.038,-8.22403761506886
5.044,-8.25588708042375
5.05,-8.28753001307965
5.056,-8.31895978861794
5.062,-8.35016967921156
5.068,-8.38115285772593
5.074,-8.41190240243216
5.08,-8.4424113023141
5.086,-8.47267246295032
5.092,-8.50267871295151
5.098,-8.53242281093343
5.104,-8.56189745300456
5.11,-8.59109528074703
5.116,-8.62000888966873
5.122,-8.64863083810358
5.128,-8.67695365653597
5.134,-8.70496985732483
5.14,-8.7326719448015
5.146,-8.76005242571472
5.152,-8.7871038199952
5.158,-8.81381867181117
5.164,-8.84018956088509
5.17,-8.8662091140412
5.176,-8.89187001695215
5.182,-8.91716502605234
5.188,-8.94208698058465
5.194,-8.96662881474621
5.2,-8.99078356989857
5.206,-9.01454440680631
5.212,-9.0379046178683
5.218,-9.06085763930456
5.224,-9.08339706326211
5.23,-9.1055166498021
5.236,-9.12721033873117
5.242,-9.14847226123965
5.248,-9.16929675130931
5.254,-9.1896783568539
5.26,-9.20961185055624
5.266,-9.22909224036609
5.272,-9.24811477962402
5.278,-9.26667497677743
5.284,-9.28476860465594
5.29,-9.30239170927511
5.296,-9.31954061813828
5.302,-9.33621194800852
5.308,-9.35240261212429
5.314,-9.36810982683429
5.32,-9.3833311176292
5.326,-9.39806432455006
5.332,-9.41230760695555
5.338,-9.42605944763259
5.344,-9.43931865623748
5.35,-9.45208437205716
5.356,-9.46435606608283
5.362,-9.47613354239086
5.368,-9.48741693882882
5.374,-9.49820672700661
5.38,-9.50850371159613
5.386,-9.51830902894478
5.392,-9.52762414501134
5.398,-9.53645085263502
5.404,-9.54479126815098
5.41,-9.55264782736804
5.416,-9.56002328092666
5.422,-9.56692068905725
5.428,-9.57334341576108
5.434,-9.57929512243792
5.44,-9.5847797609862
5.446,-9.58980156640302
5.452,-9.59436504891317
5.458,-9.59847498565683
5.464,-9.60213641196752
5.47,-9.60535461227201
5.476,-9.60813511064524
5.482,-9.61048366105346
5.488,-9.61240623731915
5.494,-9.61390902284194
5.5,-9.61499840010888
5.506,-9.61610089446884
5.512,-9.616802622383
5.518,-9.61710016734187
5.524,-9.61699021720115
5.53,-9.61646958862189
5.536,-9.61553525967964
5.542,-9.61418441247894
5.548,-9.61241448780603
5.554,-9.61022325398567
5.56,-9.60760889212681
5.566,-9.6045700997792
5.572,-9.60110621459349
5.578,-9.59721735877832
5.584,-9.59290460386888
5.59,-9.58817015345364
5.596,-9.5830175389731
5.602,-9.57745182049349
5.608,-9.57147978057165
5.614,-9.56511009523436
5.62,-9.55835346218363
5.626,-9.55122266333398
5.632,-9.54373253762193
5.638,-9.53589984172603
5.644,-9.52774298180069
5.65,-9.51928160903794
5.656,-9.51053608555366
5.662,-9.50152684347282
5.668,-9.49227367684654
5.674,-9.48279502010983
5.68,-9.47310727500166
5.686,-9.46322424777174
5.692,-9.45315674917592
5.698,-9.44291239228937
5.704,-9.4324956004801
5.71,-9.42190781408359
5.716,-9.41114786359986
5.722,-9.40021246284166
5.728,-9.38909676900738
5.734,-9.37779495795297
5.74,-9.36630077038907
5.746,-9.35460799594333
5.752,-9.34271087452709
5.758,-9.33060440618461
5.764,-9.31828457024029
5.77,-9.30574846148421
5.776,-9.29299435533386
5.782,-9.28002171575803
5.788,-9.2668311598108
5.794,-9.25342439149439
5.8,-9.23980411587239
5.806,-9.22597394229783
5.812,-9.21193828358513
5.818,-9.19770225611342
5.824,-9.18327158428614
5.83,-9.16865251151199
5.836,-9.15385171890355
5.842,-9.13887625217486
5.848,-9.12373345671875
5.854,-9.10843092051138
5.86,-9.09297642428891
5.866,-9.07737789833253
5.872,-9.06164338515745
5.878,-9.04578100740614
5.884,-9.02979894027992
5.89,-9.01370538789432
5.896,-8.99750856300261
5.902,-8.98121666959494
5.908,-8.9648378879412
5.914,-8.94838036170357
5.92,-8.93185218679762
5.926,-8.91526140172857
5.932,-8.89861597917063
5.938,-8.88192381859499
5.944,-8.86519273978258
5.95,-8.84843047708569
5.956,-8.83164467432518
5.962,-8.81484288022945
5.968,-8.79803254433811
5.974,-8.78122101330656
5.98,-8.7644155275595
5.986,-8.74762321825067
5.992,-8.73085110449408
5.998,-8.71410609083836
6.004,-8.69739496496141
6.01,-8.68072439556648
6.016,-8.66410093046478
6.022,-8.64753099483221
6.028,-8.63102088963035
6.034,-8.61457679018363
6.04,-8.59820474490598
6.046,-8.58191067417154
6.052,-8.5657003693248
6.058,-8.54957949182639
6.064,-8.53355357253109
