"Freq [GHz]","dB(St(1,2)) []"
1,-29.3874540606069
1.006,-31.1562130597139
1.012,-32.7227446192342
1.018,-33.0938687068599
1.024,-31.932174288564
1.03,-30.2118319723955
1.036,-28.6676876615775
1.042,-27.4846143283848
1.048,-26.6385326207265
1.054,-26.057077357684
1.06,-25.6677183235213
1.066,-25.4110935059837
1.072,-25.2432701181657
1.078,-25.1339546022028
1.084,-25.0633972461813
1.09,-25.0192944523745
1.096,-24.9942512469409
1.102,-24.9839398160899
1.108,-24.9858766559097
1.114,-24.9986675549369
1.12,-25.0215712854238
1.126,-25.0542639274156
1.132,-25.0967209890953
1.138,-25.1491635029235
1.144,-25.2120348244576
1.15,-25.2859881412599
1.156,-25.3718728114197
1.162,-25.4707125181329
1.168,-25.5836712902257
1.174,-25.7120056598766
1.18,-25.8570031712045
1.186,-26.0199093602836
1.192,-26.2018471851784
1.198,-26.4037344879331
1.204,-26.6262061070448
1.21,-26.869547425053
1.216,-27.1336452611203
1.222,-27.4179601622591
1.228,-27.7215216234331
1.234,-28.0429450778633
1.24,-28.3804671929309
1.246,-28.7319945192693
1.252,-29.0951600771775
1.258,-29.4673829712727
1.264,-29.8459273392616
1.27,-30.2279584953065
1.276,-30.6105956529544
1.282,-30.9909618121088
1.288,-31.3662320847723
1.294,-31.7336818451824
1.3,-32.0907356524113
1.306,-32.4350170224761
1.312,-32.764398005251
1.318,-33.0770463803368
1.324,-33.3714673764701
1.33,-33.6465363688087
1.336,-33.901519170229
1.342,-34.1360773379049
1.348,-34.3502572528895
1.354,-34.544463360327
1.36,-34.7194175744716
1.366,-34.8761081597314
1.372,-35.0157321858679
1.378,-35.1396358415074
1.384,-35.2492565264359
1.39,-35.3460698781018
1.396,-35.4315439132829
1.402,-35.5071014657888
1.408,-35.5740912153941
1.414,-35.6337669137441
1.42,-35.6872739466473
1.426,-35.7356421147924
1.432,-35.7797834283657
1.438,-35.8204937481525
1.444,-35.8584572210406
1.45,-35.8942526135495
1.456,-35.9283608149855
1.462,-35.9611729434294
1.468,-35.9929986321858
1.474,-36.0240741966381
1.48,-36.0545704806477
1.486,-36.0846002591221
1.492,-36.1142251317689
1.498,-36.1434618854665
1.504,-36.1722883321653
1.51,-36.2006486485881
1.516,-36.2284582556072
1.522,-36.2556082809966
1.528,-36.2819696508709
1.534,-36.3073968537362
1.54,-36.3317314176422
1.546,-36.3548051361482
1.552,-36.3764430732435
1.558,-36.396466371403
1.564,-36.4146948809446
1.57,-36.4309496230217
1.576,-36.4450550931538
1.582,-36.4568414073348
1.588,-36.4661462885886
1.594,-36.4728168885033
1.6,-36.4767114358195
1.606,-36.4777007026561
1.612,-36.475669278428
1.618,-36.4705166419334
1.624,-36.4621580234109
1.63,-36.4505250504857
1.636,-36.4355661747194
1.642,-36.4172468787934
1.648,-36.3955496679976
1.654,-36.3704738535
1.66,-36.3420351386195
1.666,-36.3102650228556
1.672,-36.2752100415662
1.678,-36.2369308618056
1.684,-36.1955012568387
1.69,-36.1510069831688
1.696,-36.1035445845407
1.702,-36.0532201473248
1.708,-36.0001480309922
1.714,-35.9444495961428
1.72,-35.886251950832
1.726,-35.8256867338779
1.732,-35.7628889515157
1.738,-35.6979958813259
1.744,-35.6311460548822
1.75,-35.5624783281505
1.756,-35.4921310463677
1.762,-35.4202413080179
1.768,-35.3469443306058
1.774,-35.2723729192225
1.78,-35.196657037384
1.786,-35.1199234782366
1.792,-35.0422956329045
1.798,-34.9638933513673
1.804,-34.884832889667
1.81,-34.805226935253
1.816,-34.7251846996776
1.822,-34.6448120643964
1.828,-34.5642117609109
1.834,-34.4834835607488
1.84,-34.4027244438439
1.846,-34.3220287060764
1.852,-34.2414879589019
1.858,-34.161190967645
1.864,-34.0812232725664
1.87,-34.0016665414819
1.876,-33.9225976183397
1.882,-33.8440872622774
1.888,-33.7661986180546
1.894,-33.6889855193924
1.9,-33.6124907939693
1.906,-33.5367447983803
1.912,-33.4617644441114
1.918,-33.3875529623053
1.924,-33.3141005842009
1.93,-33.2413861892194
1.936,-33.1693798160893
1.942,-33.0980457811658
1.948,-33.0273460422841
1.954,-32.9572434144897
1.96,-32.8877042918224
1.966,-32.8187006391445
1.972,-32.7502111564086
1.978,-32.6822216489767
1.984,-32.6147247351997
1.99,-32.5477190748941
1.996,-32.4812083121025
2.002,-32.4151999038767
2.008,-32.3497039679597
2.014,-32.2847322386397
2.02,-32.2202971803183
2.026,-32.1564112769163
2.032,-32.0930864933227
2.038,-32.0303338917907
2.044,-31.9681633796784
2.05,-31.9065835631956
2.056,-31.8456016830683
2.062,-31.7852236108857
2.068,-31.7254538883861
2.074,-31.666295795471
2.08,-31.6077514359548
2.086,-31.5498218328287
2.092,-31.4925070270769
2.098,-31.435806175881
2.104,-31.3797176474255
2.11,-31.3242391105466
2.116,-31.2693676182242
2.122,-31.215099684451
2.128,-31.1614313543843
2.134,-31.1083582679325
2.14,-31.0558757170869
2.146,-31.003978697398
2.152,-30.9526619540442
2.158,-30.9019200229538
2.164,-30.8517472674359
2.17,-30.8021379107559
2.176,-30.7530860650663
2.182,-30.7045857570683
2.188,-30.6566309507528
2.194,-30.6092155675329
2.2,-30.56233350405
2.206,-30.5159786479076
2.212,-30.4701448915593
2.218,-30.4248261445521
2.224,-30.3800163443059
2.23,-30.3357094655868
2.236,-30.2918995288196
2.242,-30.2485806073611
2.248,-30.2057468338503
2.254,-30.1633924057318
2.26,-30.1215115900426
2.266,-30.0800987275395
2.272,-30.0391482362391
2.278,-29.9986546144296
2.284,-29.9586124432132
2.29,-29.9190163886262
2.296,-29.8798612033827
2.302,-29.8411417282805
2.308,-29.802852893305
2.314,-29.7649897184637
2.32,-29.7275473143783
2.326,-29.6905208826617
2.332,-29.6539057161009
2.338,-29.6176971986696
2.344,-29.5818908053855
2.35,-29.5464821020324
2.356,-29.5114667447608
2.362,-29.4768404795796
2.368,-29.4425991417547
2.374,-29.4087386551216
2.38,-29.3752550313257
2.386,-29.3421443689969
2.392,-29.3094028528686
2.398,-29.277026752847
2.404,-29.2450124230398
2.41,-29.2133563007475
2.416,-29.1820549054256
2.422,-29.1511048376208
2.428,-29.1205027778878
2.434,-29.0902454856881
2.44,-29.0603297982771
2.446,-29.0307526295819
2.452,-29.0015109690725
2.458,-28.9726018806294
2.464,-28.9440225014107
2.47,-28.9157700407197
2.476,-28.8878417788767
2.482,-28.8602350660947
2.488,-28.8329473213628
2.494,-28.8059760313366
2.5,-28.7793187492392
2.506,-28.7529730937715
2.512,-28.7269367480344
2.518,-28.7012074584637
2.524,-28.6757830337778
2.53,-28.6506613439386
2.536,-28.6258403191282
2.542,-28.6013179487384
2.548,-28.5770922803774
2.554,-28.5531614188905
2.56,-28.5295235253972
2.566,-28.5061768163447
2.572,-28.4831195625766
2.578,-28.4603500884184
2.584,-28.437866770779
2.59,-28.415668038269
2.596,-28.3937523703344
2.602,-28.3721182964069
2.608,-28.35076439507
2.614,-28.3296892932416
2.62,-28.3088916653713
2.626,-28.2883702326541
2.632,-28.2681237622588
2.638,-28.2481510665717
2.644,-28.2284510024556
2.65,-28.209022470522
2.656,-28.1898644144185
2.662,-28.1709758201305
2.668,-28.1523557152948
2.674,-28.1340031685282
2.68,-28.1159172887679
2.686,-28.0980972246244
2.692,-28.0805421637472
2.698,-28.063251332201
2.704,-28.0462239938548
2.71,-28.0294594497798
2.716,-28.01295703766
2.722,-27.9967161312106
2.728,-27.9807361396078
2.734,-27.9650165069263
2.74,-27.9495567115862
2.746,-27.9343562658076
2.752,-27.9194147150734
2.758,-27.9047316375984
2.764,-27.8903066438059
2.77,-27.8761393758096
2.776,-27.8622295069022
2.782,-27.8485767410476
2.788,-27.8351808123788
2.794,-27.8220414846992
2.8,-27.8091585509875
2.806,-27.7965318329052
2.812,-27.7841611803062
2.818,-27.7720464707484
2.824,-27.7601876090058
2.83,-27.7485845265812
2.836,-27.7372371812183
2.842,-27.7261455564133
2.848,-27.7153096609241
2.854,-27.7047295282777
2.86,-27.6944052162743
2.866,-27.6843368064874
2.872,-27.6745244037591
2.878,-27.6649681356911
2.884,-27.655668152128
2.89,-27.6466246246344
2.896,-27.6378377459645
2.902,-27.629307729522
2.908,-27.6210348088109
2.914,-27.6130192368762
2.92,-27.605261285732
2.926,-27.5977612457781
2.932,-27.5905194252026
2.938,-27.5835361493698
2.944,-27.5768117601931
2.95,-27.5703466154908
2.956,-27.5641410883235
2.962,-27.5581955663134
2.968,-27.5525104509425
2.974,-27.5470861568297
2.98,-27.5419231109847
2.986,-27.5370217520378
2.992,-27.5323825294441
2.998,-27.5280059026604
3.004,-27.523892340294
3.01,-27.5200423192203
3.016,-27.5164563236702
3.022,-27.5131348442825
3.028,-27.5100783771225
3.034,-27.5072874226627
3.04,-27.5047624847253
3.046,-27.5025040693838
3.052,-27.5005126838225
3.058,-27.4987888351504
3.064,-27.4973330291694
3.07,-27.4961457690929
3.076,-27.4952275542132
3.082,-27.494578878516
3.088,-27.4942002292383
3.094,-27.4940920853685
3.1,-27.494254916085
3.106,-27.4946891791313
3.112,-27.4953953191254
3.118,-27.4963737657992
3.124,-27.497624932166
3.13,-27.4991492126131
3.136,-27.5009469809165
3.142,-27.5030185881732
3.148,-27.5053643606499
3.154,-27.5079845975431
3.16,-27.5108795686474
3.166,-27.5140495119293
3.172,-27.5174946310015
3.178,-27.5212150924955
3.184,-27.5252110233263
3.19,-27.529482507848
3.196,-27.5340295848943
3.202,-27.5388522446998
3.208,-27.5439504256996
3.214,-27.5493240112001
3.22,-27.5549728259189
3.226,-27.5608966323886
3.232,-27.5670951272189
3.238,-27.5735679372137
3.244,-27.5803146153384
3.25,-27.5873346365307
3.256,-27.5943427021013
3.262,-27.6016585849476
3.268,-27.6092801367287
3.274,-27.6172048799784
3.28,-27.6254300110648
3.286,-27.6339524038644
3.292,-27.6427686141117
3.298,-27.6518748843768
3.304,-27.6612671496192
3.31,-27.6709410432581
3.316,-27.6808919036934
3.322,-27.6911147812067
3.328,-27.7016044451649
3.334,-27.7123553914442
3.34,-27.7233618499871
3.346,-27.7346177923997
3.352,-27.7461169394941
3.358,-27.7578527686744
3.364,-27.7698185210643
3.37,-27.7820072082676
3.376,-27.7944116186554
3.382,-27.8070243230661
3.388,-27.8198376798086
3.394,-27.8328438388538
3.4,-27.8460347451016
3.406,-27.8594021406102
3.412,-27.872937565676
3.418,-27.8866323586535
3.424,-27.900477654407
3.43,-27.9144643812913
3.436,-27.9285832565595
3.442,-27.9428247801055
3.448,-27.9571792264513
3.454,-27.9716366349032
3.46,-27.9861867978032
3.466,-28.0008192468219
3.472,-28.015523237247
3.478,-28.0302877302411
3.484,-28.0451013730609
3.49,-28.0599524772533
3.496,-28.0748289948691
3.502,-28.0897184927668
3.508,-28.104608125112
3.514,-28.1194846042221
3.52,-28.1343341699462
3.526,-28.149142557827
3.532,-28.1638949663474
3.538,-28.178576023629
3.544,-28.1931697540229
3.55,-28.2076595451112
3.556,-28.2220281157243
3.562,-28.236257485667
3.568,-28.2503289479493
3.574,-28.2642230444099
3.58,-28.2779195457317
3.586,-28.2913974369397
3.592,-28.3046349095785
3.598,-28.3176093618454
3.604,-28.3302974080378
3.61,-28.3426748987221
3.616,-28.3547169530658
3.622,-28.3663980047646
3.628,-28.3776918629532
3.634,-28.3885717893887
3.64,-28.3990105930411
3.646,-28.4089807429997
3.652,-28.4184545003123
3.658,-28.4274040689948
3.664,-28.435801765996
3.67,-28.4436202093696
3.676,-28.4508325232932
3.682,-28.4574125579092
3.688,-28.4633351212428
3.694,-28.4685762197148
3.7,-28.473113303033
3.706,-28.4769255085527
3.712,-28.479993899581
3.718,-28.4823016916031
3.724,-28.4838344600749
3.73,-28.4845803232867
3.736,-28.4845300939021
3.742,-28.4836773931252
3.748,-28.4820187220712
3.754,-28.4795534858
3.76,-28.4762839666048
3.766,-28.4722152444936
3.772,-28.4673550643033
3.778,-28.4617136504902
3.784,-28.4553034722629
3.79,-28.4481389632901
3.796,-28.4402362016503
3.802,-28.4316125569116
3.808,-28.4222863121902
3.814,-28.4122762696778
3.82,-28.4016013484309
3.826,-28.390280183178
3.832,-28.3783307325241
3.838,-28.3657699042637
3.844,-28.3526132045931
3.85,-28.3388744168972
3.856,-28.3245653145477
3.862,-28.3096954108454
3.868,-28.2942717479388
3.874,-28.2782987253083
3.88,-28.261777967266
3.886,-28.2447082279214
3.892,-28.2270853312296
3.898,-28.2089021430795
3.904,-28.1901485718974
3.91,-28.1708115939372
3.916,-28.1508752992714
3.922,-28.130320954491
3.928,-28.1091270782221
3.934,-28.08726952577
3.94,-28.0647215794683
3.946,-28.0414540416293
3.952,-28.0174353273427
3.958,-27.9926315547261
3.964,-27.967006630592
3.97,-27.9405223298428
3.976,-27.9131383672274
3.982,-27.8848124603966
3.988,-27.8555003834571
3.994,-27.8251560104669
4,-27.7937313485162
4.006,-27.761176560217
4.012,-27.7274399755698
4.018,-27.6924680933034
4.024,-27.656205571883
4.03,-27.6185952104696
4.036,-27.579577920187
4.042,-27.5390926861169
4.048,-27.4970765205041
4.054,-27.4534644077161
4.06,-27.4081892415702
4.066,-27.3611817557228
4.072,-27.3123704479109
4.078,-27.2616814989648
4.084,-27.2090386876618
4.09,-27.1543633026925
4.096,-27.0975740532617
4.102,-27.0385869801631
4.108,-26.9773153695669
4.114,-26.9136696722596
4.12,-26.8475574317026
4.126,-26.7788832250548
4.132,-26.7075486222767
4.138,-26.6334521696376
4.144,-26.5564894054442
4.15,-26.4765529176602
4.156,-26.393532455384
4.162,-26.3073151089919
4.168,-26.2177855772712
4.174,-26.1248265442189
4.18,-26.0283191935642
4.186,-25.9281438957232
4.192,-25.8241811101113
4.198,-25.716312555876
4.204,-25.6044227165978
4.21,-25.4884007598519
4.216,-25.3681429713213
4.222,-25.2435558260799
4.228,-25.1145598474635
4.234,-24.9810944373869
4.24,-24.8431239017338
4.246,-24.7006449410423
4.252,-24.5536959301064
4.258,-24.4023683693953
4.264,-24.2468209538091
4.27,-24.0872967650028
4.276,-23.9241441428574
4.282,-23.7578418136542
4.288,-23.5890288216411
4.294,-23.41853968817
4.3,-23.2474449523261
4.306,-23.077096752347
4.312,-22.9091782915581
4.318,-22.7457547885241
4.324,-22.5893217459118
4.33,-22.4428440609232
4.336,-22.3097767736177
4.342,-22.1940555208071
4.348,-22.1000428559612
4.354,-22.0324167956437
4.36,-21.9959918390988
4.366,-21.9954716009116
4.372,-22.0351461980005
4.378,-22.1185644589269
4.384,-22.2482260062516
4.39,-22.4253448930707
4.396,-22.6497296884833
4.402,-22.919804311866
4.408,-23.2327651957583
4.414,-23.5848431459435
4.42,-23.9716214479651
4.426,-24.3883592748497
4.432,-24.8302792209392
4.438,-25.2927939891334
4.444,-25.7716637094486
4.45,-26.2630879585066
4.456,-26.7637438685224
4.462,-27.2707843412993
4.468,-27.781809799342
4.474,-28.2948246419454
4.48,-28.8081867819736
4.486,-29.3205560093396
4.492,-29.8308447748317
4.498,-30.3381733862033
4.504,-30.8418305044784
4.51,-31.3412391210112
4.516,-31.8359277789146
4.522,-32.3255065848709
4.528,-32.8096474686417
4.534,-33.2880681371099
4.54,-33.7605192028702
4.546,-34.2267740217577
4.552,-34.686620835317
4.558,-35.1398568748438
4.564,-35.5862841387843
4.57,-36.0257066028058
4.576,-36.4579286609857
4.582,-36.8827546273985
4.588,-37.2999891504617
4.594,-37.7094384085455
4.6,-38.1109119655605
4.606,-38.5042251705837
4.612,-38.8892019872626
4.618,-39.2656781379531
4.624,-39.6335044455778
4.63,-39.9925502542806
4.636,-40.3427068092778
4.642,-40.6838904779335
4.648,-41.0160456988501
4.654,-41.339147554234
4.66,-41.6532038732095
4.666,-41.9582567899491
4.672,-42.254383699979
4.678,-42.5416975799255
4.684,-42.8203466592099
4.69,-43.0905134554833
4.696,-43.3524132076263
4.702,-43.6062917597028
4.708,-43.8524229653191
4.714,-44.0911056936883
4.72,-44.3226605259098
4.726,-44.5474262325178
4.732,-44.765756121489
4.738,-44.9780143401744
4.744,-45.1845722057672
4.75,-45.3858046277812
4.756,-45.582086673469
4.762,-45.7737903139849
4.768,-45.9612813761466
4.774,-46.1449167124638
4.78,-46.3250415911748
4.786,-46.5019872986596
4.792,-46.6760689390004
4.798,-46.8475834096965
4.804,-47.016807528627
4.81,-47.1839962852268
4.816,-47.349381188409
4.822,-47.513168684933
4.828,-47.6755386245926
4.834,-47.8366427526973
4.84,-47.9966032158091
4.846,-48.1555110735285
4.852,-48.3134248173106
4.858,-48.4703689068073
4.864,-48.6263323450743
4.87,-48.7812673260788
4.876,-48.9350880011656
4.882,-49.0876694252392
4.888,-49.2388467579885
4.894,-49.388414809908
4.9,-49.5361280362988
4.906,-49.6817010937196
4.912,-49.8248100810732
4.918,-49.965094589953
4.924,-50.1021606841537
4.93,-50.2355849144186
4.936,-50.3649194497851
4.942,-50.4896983699887
4.948,-50.6094451137906
4.954,-50.7236810165202
4.96,-50.8319347987983
4.966,-50.9337527913396
4.972,-51.0287096036787
4.978,-51.1164188748562
4.984,-51.1965436895944
4.99,-51.2688062122117
4.996,-51.3329960890535
5.002,-51.3889772026128
5.008,-51.4366924272639
5.014,-51.4761661340534
5.02,-51.507504312711
5.026,-51.5308923122215
5.032,-51.5465903344614
5.038,-51.5549269360529
5.044,-51.5562908910014
5.05,-51.5511218332946
5.056,-51.5399001308675
5.062,-51.5231364406836
5.068,-51.5013613631939
5.074,-51.4751155597185
5.08,-51.4449406262595
5.086,-51.41137093996
5.092,-51.3749266170929
5.098,-51.3361076498566
5.104,-51.2953892273496
5.11,-51.2532181961402
5.116,-51.2100105785089
5.122,-51.1661500412325
5.128,-51.1219871933611
5.134,-51.0778395860236
5.14,-51.0339922889385
5.146,-50.9906989250813
5.152,-50.9481830551733
5.158,-50.9066398158538
5.164,-50.866237728437
5.17,-50.8271206081766
5.176,-50.78940951636
5.182,-50.7532047089416
5.188,-50.7185875455869
5.194,-50.6856223318387
5.2,-50.6543580746501
5.206,-50.6248301378139
5.212,-50.5970617889572
5.218,-50.5710656339022
5.224,-50.5468449374291
5.23,-50.5243948319663
5.236,-50.503703417583
5.242,-50.4847527579837
5.248,-50.4675197781118
5.254,-50.4519770695273
5.26,-50.4380936100203
5.266,-50.4258354040096
5.272,-50.4151660502068
5.278,-50.4060472428472
5.284,-50.3984392125187
5.29,-50.3923011123073
5.296,-50.3875913546211
5.302,-50.3842679036849
5.308,-50.3822885283227
5.314,-50.3816110192728
5.32,-50.3821933749171
5.326,-50.3839939589644
5.332,-50.3869716332934
5.338,-50.39108586886
5.344,-50.3962968372825
5.35,-50.4025654854555
5.356,-50.4098535953007
5.362,-50.4181238305378
5.368,-50.4273397721566
5.374,-50.4374659440888
5.38,-50.4484678304067
5.386,-50.46031188523
5.392,-50.4729655363831
5.398,-50.4863971837241
5.404,-50.5005761929594
5.41,-50.5154728856563
5.416,-50.5310585260832
5.422,-50.547305305426
5.428,-50.5641863238612
5.434,-50.5816755709057
5.44,-50.5997479044071
5.446,-50.6183790284919
5.452,-50.6375454707442
5.458,-50.6572245588516
5.464,-50.6773943969211
5.47,-50.6980338416381
5.476,-50.7191224784162
5.482,-50.7406405976633
5.488,-50.7625691712684
5.494,-50.7848898293984
5.5,-50.8075848376754
5.506,-50.8514038313341
5.512,-50.8951914443769
5.518,-50.9387998562975
5.524,-50.9820678458779
5.53,-51.0248206467898
5.536,-51.0668699732503
5.542,-51.1080142451443
5.548,-51.1480390423241
5.554,-51.1867178169968
5.56,-51.2238128909922
5.566,-51.2590767609866
5.572,-51.2922537292766
5.578,-51.3230818702772
5.584,-51.3512953335343
5.59,-51.3766269727626
5.596,-51.3988112774761
5.602,-51.4175875695964
5.608,-51.432703412592
5.614,-51.4439181660069
5.62,-51.4510066046072
5.626,-51.4537625098256
5.632,-51.4520021327539
5.638,-51.4455674235669
5.644,-51.4343289227383
5.65,-51.4181882151573
5.656,-51.3970798594391
5.662,-51.370972720941
5.668,-51.3398706575548
5.674,-51.3038125310786
5.68,-51.2628715424241
5.686,-51.2171539145378
5.692,-51.1667969710366
5.698,-51.1119666797423
5.704,-51.0528547473217
5.71,-50.9896753632798
5.716,-50.9226616982067
5.722,-50.8520622624572
5.728,-50.778137227776
5.734,-50.7011548064703
5.74,-50.621387771517
5.746,-50.5391101874979
5.752,-50.4545944075144
5.758,-50.3681083762099
5.764,-50.2799132645249
5.77,-50.1902614484709
5.776,-50.0993948324911
5.782,-50.0075435081309
5.788,-49.914924730905
5.794,-49.8217421923506
5.8,-49.7281855602173
5.806,-49.6344302573284
5.812,-49.5406374486433
5.818,-49.4469542061851
5.824,-49.3535138225399
5.83,-49.260436245338
5.836,-49.1678286072871
5.842,-49.0757858287738
5.848,-48.9843912726225
5.854,-48.8937174331983
5.86,-48.8038266445649
5.866,-48.7147717947918
5.872,-48.6265970357291
5.878,-48.5393384795743
5.884,-48.4530248753479
5.89,-48.3676782599891
5.896,-48.2833145801446
5.902,-48.199944281904
5.908,-48.1175728667259
5.914,-48.0362014126236
5.92,-47.9558270603554
5.926,-47.8764434649111
5.932,-47.7980412130148
5.938,-47.7206082076975
5.944,-47.6441300212415
5.95,-47.5685902179749
5.956,-47.4939706485118
5.962,-47.4202517171114
5.968,-47.3474126238489
5.974,-47.2754315832993
5.98,-47.2042860214091
5.986,-47.1339527521806
5.992,-47.0644081357467
5.998,-46.9956282193298
6.004,-46.9275888625194
6.01,-46.860265848209
6.016,-46.7936349804619
6.022,-46.7276721704821
6.028,-46.6623535117953
6.034,-46.5976553456579
6.04,-46.533554317636
6.046,-46.4700274262242
6.052,-46.4070520643039
6.058,-46.344606054169
