"Freq [GHz]","dB(St(4,4)) []"
1,-2.88901210789101
1.006,-2.86654187769474
1.012,-2.79559235072148
1.018,-2.69751504858575
1.024,-2.58644093627808
1.03,-2.47162665197997
1.036,-2.35724795949632
1.042,-2.25123687757871
1.048,-2.15203296873548
1.054,-2.06179377787134
1.06,-1.98101320391295
1.066,-1.90969695265073
1.072,-1.84772226527649
1.078,-1.79429405872805
1.084,-1.74909468953939
1.09,-1.71144536430349
1.096,-1.6806837761931
1.102,-1.65596641122683
1.108,-1.63856554298908
1.114,-1.62452132436313
1.12,-1.61551066057404
1.126,-1.6106506804712
1.132,-1.60936500679173
1.138,-1.6102485134913
1.144,-1.6192769807794
1.15,-1.62520877552979
1.156,-1.63259792439651
1.162,-1.64138320632375
1.168,-1.65123707582317
1.174,-1.70367824518495
1.18,-1.53211238701452
1.186,-1.33411544990296
1.192,1.6822454614828
1.198,-2.38990343701773
1.204,-2.23532685034909
1.21,-1.09215720654839
1.216,-0.548067504092365
1.222,-1.61596484966097
1.228,-1.76836615997032
1.234,-1.80463352986718
1.24,-1.80648901115028
1.246,-1.79906035103296
1.252,-1.79509843352751
1.258,-1.80100420229201
1.264,-1.81643310712038
1.27,-1.82810659530569
1.276,-1.75244633856001
1.282,-1.78877253876056
1.288,-1.78834652772187
1.294,-1.78749256952227
1.3,-1.78586947784872
1.306,-1.78356890854649
1.312,-1.78058686012581
1.318,-1.77698163638633
1.324,-1.77277838401847
1.33,-1.76802493023987
1.336,-1.7627557299245
1.342,-1.75701169099118
1.348,-1.75088369444463
1.354,-1.74388975193146
1.36,-1.73701071089536
1.366,-1.72965021533742
1.372,-1.72194900479952
1.378,-1.71394344908112
1.384,-1.70559764284596
1.39,-1.69740511102568
1.396,-1.68867266806477
1.402,-1.67984540489428
1.408,-1.67088881230905
1.414,-1.6617566959171
1.42,-1.65141382845147
1.426,-1.64326017287065
1.432,-1.63388991054883
1.438,-1.62446725425796
1.444,-1.61500762077996
1.45,-1.6055302719726
1.456,-1.59610271000904
1.462,-1.58654088869192
1.468,-1.57709334376664
1.474,-1.56767461112109
1.48,-1.5583015535223
1.486,-1.54899458851675
1.492,-1.54107191987041
1.498,-1.53044575993366
1.504,-1.52134990982331
1.51,-1.51232396748919
1.516,-1.50338670349046
1.522,-1.49454744711612
1.528,-1.48581395322156
1.534,-1.47719355870923
1.54,-1.46869351614836
1.546,-1.46032114134751
1.552,-1.45208390123655
1.558,-1.44398947669126
1.564,-1.43597139636163
1.57,-1.42790618234394
1.576,-1.42003055260722
1.582,-1.41234603386184
1.588,-1.40485422632991
1.594,-1.39755682105717
1.6,-1.39045561534726
1.606,-1.38355252658093
1.612,-1.37684960465348
1.618,-1.37034904323806
1.624,-1.36405319006048
1.63,-1.35796455635082
1.636,-1.35208582562002
1.642,-1.34641986189385
1.648,-1.3409697175234
1.654,-1.33573864067884
1.66,-1.33073008262323
1.666,-1.32594770485319
1.672,-1.32139538618579
1.678,-1.31707722986363
1.684,-1.31299757074393
1.69,-1.30916098263248
1.696,-1.30557228581853
1.702,-1.30223655486319
1.708,-1.29915912669112
1.714,-1.29634560903294
1.72,-1.29380188926464
1.726,-1.29153414369044
1.732,-1.28954884731617
1.738,-1.28785278416393
1.744,-1.28645305818435
1.75,-1.28535710483324
1.756,-1.28457270339673
1.762,-1.2841079901789
1.768,-1.28397147271702
1.774,-1.28417204528121
1.78,-1.28471900608443
1.786,-1.28562207695641
1.792,-1.2868914269041
1.798,-1.28853770243981
1.804,-1.29057207099653
1.81,-1.2930062926868
1.816,-1.29585286197899
1.822,-1.29912535247817
1.828,-1.3028395034315
1.834,-1.30701823423971
1.84,-1.31174440420407
1.846,-1.31636448581394
1.852,-1.32217315465512
1.858,-1.32830913579115
1.864,-1.33495243054222
1.87,-1.34213447225452
1.876,-1.34987709150428
1.882,-1.35820067306026
1.888,-1.36712570213311
1.894,-1.37667322804753
1.9,-1.38686505499457
1.906,-1.3977238451022
1.912,-1.40927318879083
1.918,-1.4215376618697
1.924,-1.43454287721809
1.93,-1.44831553455422
1.936,-1.46288346999486
1.942,-1.47827570629695
1.948,-1.49452250428084
1.954,-1.51165541573383
1.96,-1.52970733798388
1.966,-1.54871257027135
1.972,-1.56870687200947
1.978,-1.58972752300028
1.984,-1.61181338565653
1.99,-1.63500496926805
1.996,-1.65934449634143
2.002,-1.68487597103383
2.008,-1.71164524969405
2.014,-1.73970011351721
2.02,-1.76909034331264
2.026,-1.79986779637762
2.032,-1.83208648546356
2.038,-1.86580265981482
2.044,-1.90107488825428
2.05,-1.93796414428483
2.056,-1.97653389317065
2.062,-2.01685018095923
2.068,-2.05898172540197
2.074,-2.10300000873127
2.08,-2.1489793722529
2.086,-2.19699711271716
2.092,-2.24713358043945
2.098,-2.29947227915253
2.104,-2.35409996758881
2.11,-2.41110676281287
2.116,-2.47058624535255
2.122,-2.5326355662133
2.128,-2.59745330639924
2.134,-2.66515407794817
2.14,-2.7357564077484
2.146,-2.80937870851818
2.152,-2.88614422126665
2.158,-2.96618119464153
2.164,-3.04962307271166
2.17,-3.13660869234462
2.176,-3.22728249156619
2.182,-3.32179473055296
2.188,-3.4203017272148
2.194,-3.52296610967665
2.2,-3.62995708837443
2.206,-3.74145075094517
2.212,-3.85763038362325
2.218,-3.97868682346267
2.224,-4.10481884639793
2.23,-4.23623359694562
2.236,-4.37314706624741
2.242,-4.51578462617841
2.248,-4.66438162841051
2.254,-4.81918407864924
2.26,-4.98044939778263
2.266,-5.14844728341917
2.272,-5.32346068729392
2.278,-5.50578692632968
2.284,-5.69573894782348
2.29,-5.89364677236449
2.296,-6.0998591417943
2.302,-6.31474540394922
2.308,-6.53869767131068
2.314,-6.77213329739409
2.32,-7.01549772331983
2.326,-7.26926775856715
2.332,-7.53395537632429
2.338,-7.81011212888103
2.344,-8.0983343300219
2.35,-8.39926922686222
2.356,-8.71362253471218
2.362,-9.04216804294377
2.368,-9.38576082278962
2.374,-9.74535785544379
2.38,-10.1220572935552
2.386,-10.5171969133883
2.392,-10.9327111660098
2.398,-11.3734703639334
2.404,-12.0152071247794
2.41,-12.2774527014891
2.416,-12.7895049931347
2.422,-13.3235313885843
2.428,-13.8855047941914
2.434,-14.478366451036
2.44,-15.1045559054839
2.446,-15.7662290712863
2.452,-16.4650649895691
2.458,-17.2017896409916
2.464,-17.9753131890131
2.47,-18.7812665882499
2.476,-19.6096373507719
2.482,-20.4412260458007
2.488,-21.2430687986599
2.494,-21.9643877800065
2.5,-22.5374564929982
2.506,-22.8900274207159
2.512,-22.9709701950927
2.518,-22.7753153714399
2.524,-22.346943959594
2.53,-21.7562664798677
2.536,-21.0731238575492
2.542,-20.3516646235143
2.548,-19.6278267288318
2.554,-18.9229050157165
2.56,-18.2482162556031
2.566,-17.608873184854
2.572,-17.0063552478049
2.578,-16.4401208606549
2.584,-15.9085739982843
2.59,-15.4096271723761
2.596,-14.9410212994448
2.602,-14.5005019998363
2.608,-14.085912158847
2.614,-13.6952361888698
2.62,-13.3266168422201
2.626,-12.9783567960818
2.632,-12.6489121464007
2.638,-12.3368819511936
2.644,-12.0409961960713
2.65,-11.7601035115536
2.656,-11.493159357214
2.662,-11.2392150277528
2.668,-10.9974076278064
2.674,-10.7669510444109
2.68,-10.5471278819482
2.686,-10.3372822921296
2.692,-10.1368136178789
2.698,-9.94517076690142
2.704,-9.76184723347132
2.71,-9.58637669268903
2.716,-9.41832909845767
2.722,-9.25730722374805
2.728,-9.10294358881756
2.734,-8.95489772965007
2.74,-8.81285376486775
2.746,-8.67651822470032
2.752,-8.54561811029946
2.758,-8.41989915580147
2.764,-8.29912426912313
2.77,-8.18307213058502
2.776,-8.07153593114817
2.782,-7.96432223437855
2.788,-7.86124994826757
2.794,-7.7621493947778
2.8,-7.66686146648922
2.806,-7.57523686102574
2.812,-7.48713538507219
2.818,-7.402425320773
2.824,-7.32098284815626
2.83,-7.24269151796897
2.836,-7.16744176995618
2.842,-7.09513049218131
2.848,-7.02566061747878
2.854,-6.95894075356343
2.86,-6.89488484370035
2.866,-6.83341185517327
2.872,-6.77444549308382
2.878,-6.71791393727356
2.884,-6.66374960039033
2.89,-6.61188890532411
2.896,-6.56227208041781
2.902,-6.51484297101935
2.908,-6.46954886608398
2.914,-6.42634033866408
2.92,-6.3851710992373
2.926,-6.34599786092691
2.932,-6.30878021575964
2.938,-6.27348052118935
2.944,-6.24006379618953
2.95,-6.20849762628492
2.956,-6.17875207695376
2.962,-6.15079961488767
2.968,-6.12461503664673
2.974,-6.10017540429324
2.98,-6.07745998763009
2.986,-6.05645021270821
2.992,-6.03712961630325
2.998,-6.01948380609465
3.004,-6.0035004263105
3.01,-5.98916912863045
3.016,-5.97648154816492
3.022,-5.96543128435407
3.028,-5.95601388665343
3.034,-5.94822684489508
3.04,-5.9420695842348
3.046,-5.93754346461551
3.052,-5.93465178469739
3.058,-5.93339979022349
3.064,-5.93379468680878
3.07,-5.93584565715862
3.076,-5.93956388274075
3.082,-5.94496256995337
3.088,-5.95205698084984
3.094,-5.96086446849955
3.1,-5.97140451708327
3.106,-5.98369878684117
3.112,-5.9977711640122
3.118,-6.013647815925
3.124,-6.03135725142307
3.13,-6.05093038683131
3.136,-6.07240061769658
3.142,-6.09580389656281
3.148,-6.12117881707136
3.154,-6.1485667047097
3.16,-6.17801171456771
3.166,-6.20956093649974
3.172,-6.24326450813435
3.178,-6.27917573622136
3.184,-6.31735122685955
3.19,-6.35785102520778
3.196,-6.40073876534918
3.202,-6.44608183105301
3.208,-6.4939515282632
3.214,-6.54442327023793
3.22,-6.59757677637256
3.226,-6.65349628586088
3.232,-6.71227078748864
3.238,-6.77399426701272
3.244,-6.83876597376032
3.25,-6.906690708291
3.256,-6.97871785415565
3.262,-7.05422547958679
3.268,-7.13336962060297
3.274,-7.2163162612344
3.28,-7.30324215087593
3.286,-7.3943357050926
3.292,-7.48979800062358
3.298,-7.58984387699801
3.304,-7.69470315915186
3.31,-7.80462201778294
3.316,-7.91986448698272
3.322,-8.04071416204101
3.328,-8.16747610435822
3.334,-8.30047898528079
3.34,-8.44007750659997
3.346,-8.58665514268113
3.352,-8.74062725804778
3.358,-8.90244466515887
3.364,-9.07259770063582
3.37,-9.25162091503802
3.376,-9.44009849238923
3.382,-9.63867054226994
3.388,-9.84804044106703
3.394,-10.068983442137
3.4,-10.302356830205
3.406,-10.5491119673987
3.412,-10.8103086725716
3.418,-11.0871324998844
3.424,-11.3809156480718
3.43,-11.6931624541495
3.436,-12.0255807271166
3.442,-12.3801205912878
3.448,-12.7590230834392
3.454,-13.1648815545934
3.46,-13.6007200736006
3.466,-14.0700946789817
3.472,-14.5772257274991
3.478,-15.1271731256169
3.484,-15.7260714870503
3.49,-16.3814501018138
3.496,-17.1026742178588
3.502,-17.9015607898352
3.508,-18.7932433927662
3.514,-19.7973795141589
3.52,-20.9397679279983
3.526,-22.2541987085781
3.532,-23.7831598679423
3.538,-25.5707457017035
3.544,-27.6186734951432
3.55,-29.6984363262585
3.556,-30.9110006336561
3.562,-30.1827959876602
3.568,-28.163884396254
3.574,-25.9832402361654
3.58,-24.0321190672057
3.586,-22.3496790890702
3.592,-20.8971591498932
3.598,-19.6301124165292
3.604,-18.5120138560122
3.61,-17.5148153633993
3.616,-16.6171946667501
3.622,-15.8028183858749
3.628,-15.059006473162
3.634,-14.3757682184661
3.64,-13.7451160072254
3.646,-13.1605750224461
3.652,-12.6168292699065
3.658,-12.1094626978624
3.664,-11.6347672850504
3.67,-11.1895988741166
3.676,-10.7712674995174
3.682,-10.3774529694539
3.688,-10.0061391754069
3.694,-9.6555624590412
3.7,-9.32417065085508
3.706,-9.01059029481163
3.712,-8.71360021106964
3.718,-8.43211000628521
3.724,-8.16514247242357
3.73,-7.91181905771042
3.736,-7.67134777279431
3.742,-7.44301302920411
3.748,-7.22616700838605
3.754,-7.02022223709136
3.76,-6.82464510532719
3.766,-6.63895011145774
3.772,-6.46269465910769
3.778,-6.29547426511739
3.784,-6.13691806902346
3.79,-5.98668456383127
3.796,-5.84445749602785
3.802,-5.70994191007046
3.808,-5.58286033860819
3.814,-5.46294916355436
3.82,-5.34995519351878
3.826,-5.24363251849846
3.832,-5.1437397116085
3.838,-5.05003744882552
3.844,-4.96228661063103
3.85,-4.88024691432812
3.856,-4.80367610384116
3.862,-4.73232969705817
3.868,-4.66596126197088
3.874,-4.6043231650538
3.88,-4.54716771143709
3.886,-4.49424857887603
3.892,-4.44532243785608
3.898,-4.4001506489269
3.904,-4.35850093503691
3.91,-4.320148939895
3.916,-4.28487960129468
3.922,-4.25248828873215
3.928,-4.22278167543254
3.934,-4.195578334287
3.94,-4.1707090638804
3.946,-4.14801696396843
3.952,-4.12735728914826
3.958,-4.10859711518094
3.964,-4.09161485487925
3.97,-4.076299660266
3.976,-4.06255074549552
3.982,-4.05027666146272
3.988,-4.03939454867769
3.994,-4.02982939033313
4,-4.02151328289967
4.006,-4.01438473730297
4.012,-4.00838801992384
4.018,-4.00347253939767
4.024,-3.99959228249259
4.03,-3.99670530019604
4.036,-3.99477324348869
4.042,-3.99376094707145
4.048,-3.99363605846726
4.054,-3.99436870937845
4.06,-3.9959312258793
4.066,-3.99829787390776
4.072,-4.00144463654209
4.078,-4.00534901966791
4.084,-4.00998988282762
4.09,-4.01534729227124
4.096,-4.02140239347715
4.102,-4.02813730066803
4.108,-4.03553500110133
4.114,-4.04357927215741
4.12,-4.05225460947848
4.126,-4.06154616462309
4.132,-4.07143969089478
4.138,-4.08192149617792
4.144,-4.09297840176963
4.15,-4.10459770633518
4.156,-4.11676715423614
4.162,-4.12947490758702
4.168,-4.14270952148936
4.174,-4.15645992197311
4.18,-4.17071538624426
4.186,-4.18546552489862
4.192,-4.20070026581238
4.198,-4.21640983946494
4.204,-4.23258476548663
4.21,-4.24921584025659
4.216,-4.26629412540289
4.222,-4.28381093708064
4.228,-4.30175783592285
4.234,-4.32012661757613
4.24,-4.3389093037465
4.246,-4.35809813369294
4.252,-4.37768555611609
4.258,-4.39766422139745
4.264,-4.41802697415207
4.27,-4.43876684606285
4.276,-4.45987704896989
4.282,-4.48135096819236
4.288,-4.50318215606339
4.294,-4.52536432566185
4.3,-4.5478913447267
4.306,-4.57075722974183
4.312,-4.59395614018094
4.318,-4.61748237290309
4.324,-4.64133035669092
4.33,-4.66549464692427
4.336,-4.68996992038276
4.342,-4.71475097017157
4.348,-4.73983270076493
4.354,-4.7652101231626
4.36,-4.7908783501547
4.366,-4.81683259169064
4.372,-4.84306815034822
4.378,-4.86958041689906
4.384,-4.89636486596672
4.39,-4.92341705177418
4.396,-4.95073260397721
4.402,-4.97830722358057
4.408,-5.0061366789339
4.414,-5.03421680180436
4.42,-5.06254348352305
4.426,-5.09111267120257
4.432,-5.11992036402294
4.438,-5.14896260958325
4.444,-5.17823550031659
4.45,-5.20773516996585
4.456,-5.23745779011789
4.462,-5.2673995667941
4.468,-5.29755673709495
4.474,-5.32792556589656
4.48,-5.35850234259742
4.486,-5.38928337791323
4.492,-5.42026500071815
4.498,-5.45144355493093
4.504,-5.48281539644409
4.51,-5.51437689009499
4.516,-5.54612440667721
4.522,-5.57805431999122
4.528,-5.610163003933
4.534,-5.64244682961982
4.54,-5.67490216255217
4.546,-5.7075253598112
4.552,-5.7403127672908
4.558,-5.77326071696426
4.564,-5.80636552418454
4.57,-5.83962348501852
4.576,-5.87303087361464
4.582,-5.90658393960424
4.588,-5.94027890553668
4.594,-5.97411196434853
4.6,-6.00807927686733
4.606,-6.04217696935051
4.612,-6.0764011310602
4.618,-6.11074781187485
4.624,-6.14521301993874
4.63,-6.17979271935057
4.636,-6.21448282789242
4.642,-6.24927921480085
4.648,-6.28417769858145
4.654,-6.31917404486915
4.66,-6.35426396433582
4.666,-6.3894431106478
4.672,-6.42470707847538
4.678,-6.46005140155687
4.684,-6.49547155081996
4.69,-6.53096293256314
4.696,-6.56652088670034
4.702,-6.60214068507174
4.708,-6.63781752982433
4.714,-6.67354655186556
4.72,-6.70932280939384
4.726,-6.7451412865097
4.732,-6.78099689191149
4.738,-6.81688445767996
4.744,-6.85279873815572
4.75,-6.88873440891425
4.756,-6.9246860658428
4.762,-6.96064822432401
4.768,-6.99661531853094
4.774,-7.03258170083839
4.78,-7.06854164135564
4.786,-7.10448932758553
4.792,-7.14041886421511
4.798,-7.17632427304312
4.804,-7.21219949304949
4.81,-7.24803838061222
4.816,-7.28383470987689
4.822,-7.31958217328419
4.828,-7.35527438226072
4.834,-7.39090486807831
4.84,-7.42646708288699
4.846,-7.4619544009269
4.852,-7.49736011992387
4.858,-7.53267746267374
4.864,-7.56789957881998
4.87,-7.6030195468292
4.876,-7.6380303761688
4.882,-7.67292500969079
4.888,-7.70769632622555
4.894,-7.74233714338907
4.9,-7.77684022060658
4.906,-7.81119826235563
4.912,-7.84540392163059
4.918,-7.87944980363078
4.924,-7.9133284696735
4.93,-7.94703244133291
4.936,-7.98055420480515
4.942,-8.01388621549954
4.948,-8.04702090285499
4.954,-8.07995067538032
4.96,-8.11266792591628
4.966,-8.14516503711652
4.972,-8.17743438714407
4.978,-8.209468355579
4.984,-8.24125932953223
4.99,-8.27279970995983
4.996,-8.30408191817094
5.002,-8.33509840252208
5.008,-8.36584164528954
5.014,-8.39630416971061
5.02,-8.42647854718383
5.026,-8.45635740461734
5.032,-8.48593343191373
5.038,-8.51519938957892
5.044,-8.54414811644162
5.05,-8.57277253746943
5.056,-8.60106567166656
5.062,-8.62902064003753
5.068,-8.65663067360049
5.074,-8.6838891214331
5.08,-8.7107894587333
5.086,-8.7373252948766
5.092,-8.76349038145113
5.098,-8.78927862025119
5.104,-8.81468407120951
5.11,-8.83970096024818
5.116,-8.86432368702794
5.122,-8.88854683257536
5.128,-8.91236516676713
5.134,-8.93577365565096
5.14,-8.95876746858236
5.146,-8.98134198515684
5.152,-9.00349280191739
5.158,-9.02521573881718
5.164,-9.04650684541812
5.17,-9.06736240680619
5.176,-9.0877789492053
5.182,-9.10775324527178
5.188,-9.12728231905278
5.194,-9.14636345059247
5.2,-9.16499418017082
5.206,-9.18317231216116
5.212,-9.20089591849326
5.218,-9.21816334171028
5.224,-9.23497319760903
5.23,-9.25132437745422
5.236,-9.26721604975872
5.242,-9.28264766162339
5.248,-9.29761893963129
5.254,-9.31212989029252
5.26,-9.32618080003768
5.266,-9.33977223475897
5.272,-9.35290503889999
5.278,-9.36558033409618
5.284,-9.3777995173699
5.29,-9.38956425888518
5.296,-9.40087649926877
5.302,-9.41173844650552
5.308,-9.42215257241739
5.314,-9.4321216087368
5.32,-9.44164854278611
5.326,-9.45073661277639
5.332,-9.4593893027395
5.338,-9.46761033710888
5.344,-9.47540367496508
5.35,-9.48277350396302
5.356,-9.4897242339589
5.362,-9.49626049035534
5.368,-9.5023871071836
5.374,-9.50810911994293
5.38,-9.51343175821668
5.386,-9.518360438086
5.392,-9.52290075436149
5.398,-9.5270584726536
5.404,-9.53083952130291
5.41,-9.53424998319071
5.416,-9.53729608745093
5.422,-9.53998420110381
5.428,-9.5423208206315
5.434,-9.54431256351558
5.44,-9.54596615975603
5.446,-9.54728844339051
5.452,-9.54828634403257
5.458,-9.54896687844658
5.464,-9.54933714217666
5.47,-9.54940430124608
5.476,-9.54917558394308
5.482,-9.54865827270797
5.488,-9.54785969613595
5.494,-9.54678722110891
5.5,-9.54544824506903
5.506,-9.54472019057431
5.512,-9.54365351807139
5.518,-9.54225396726996
5.524,-9.54052757959783
5.53,-9.53848068127326
5.536,-9.5361198656676
5.542,-9.53345197505319
5.548,-9.53048408183368
5.554,-9.52722346935506
5.56,-9.52367761239644
5.566,-9.51985415743904
5.572,-9.51576090281086
5.578,-9.51140577880247
5.584,-9.50679682784734
5.59,-9.5019421848559
5.596,-9.49685005779003
5.602,-9.49152870855888
5.608,-9.4859864343137
5.614,-9.48023154921249
5.62,-9.47427236672117
5.626,-9.46811718251119
5.632,-9.46177425800806
5.638,-9.45525180463868
5.644,-9.44855796881965
5.65,-9.44170081772211
5.656,-9.43468832584269
5.662,-9.42752836240417
5.668,-9.42022867960334
5.674,-9.41279690171813
5.68,-9.40524051508044
5.686,-9.3975668589159
5.692,-9.38978311704725
5.698,-9.3818963104529
5.704,-9.37391329066851
5.71,-9.36584073401548
5.716,-9.35768513663641
5.722,-9.34945281031496
5.728,-9.34114987905436
5.734,-9.33278227638659
5.74,-9.32435574338223
5.746,-9.31587582732913
5.752,-9.30734788104676
5.758,-9.29877706280203
5.764,-9.29016833679163
5.77,-9.28152647415515
5.776,-9.27285605448368
5.782,-9.26416146778765
5.788,-9.25544691688898
5.794,-9.24671642020193
5.8,-9.23797381486862
5.806,-9.22922276021536
5.812,-9.22046674149692
5.818,-9.21170907389724
5.824,-9.20295290675578
5.83,-9.19420122799005
5.836,-9.18545686868652
5.842,-9.1767225078326
5.848,-9.16800067716496
5.854,-9.15929376610955
5.86,-9.1506040267912
5.866,-9.14193357909138
5.872,-9.13328441573451
5.878,-9.12465840738447
5.884,-9.11605730773421
5.89,-9.10748275857312
5.896,-9.09893629481748
5.902,-9.09041934949131
5.908,-9.08193325864558
5.914,-9.07347926620533
5.92,-9.06505852873493
5.926,-9.05667212011347
5.932,-9.04832103611242
5.938,-9.04000619886945
5.944,-9.03172846125289
5.95,-9.02348861111187
5.956,-9.01528737540869
5.962,-9.00712542422995
5.968,-8.99900337467441
5.974,-8.99092179461539
5.98,-8.9828812063369
5.986,-8.97488209004284
5.992,-8.9669248872389
5.998,-8.95901000398789
6.004,-8.95113781403897
6.01,-8.94330866183206
6.016,-8.93552286537892
6.022,-8.92778071902272
6.028,-8.92008249607795
6.034,-8.91242845135327
6.04,-8.90481882355952
6.046,-8.8972538376058
6.052,-8.88973370678632
6.058,-8.88225863486088
