"Freq [GHz]","dB(St(1,1)) []"
1,-0.957388194786999
1.006,0.0449868712349142
1.012,0.949365788061187
1.018,1.77613235040491
1.024,2.5022035809974
1.03,3.16076678317302
1.036,3.74859190771273
1.042,4.26571826540311
1.048,4.71894854341472
1.054,5.10768082240796
1.06,5.43692627699468
1.066,5.70875972228426
1.072,5.93733969532501
1.078,6.09028188258286
1.084,6.20895055496154
1.09,6.28208282579731
1.096,6.31403759454604
1.102,6.30601120348399
1.108,6.29542546589863
1.114,6.22697573450657
1.12,6.14254766032856
1.126,6.04244877528691
1.132,5.92352181476519
1.138,5.79005754703973
1.144,5.21158823966981
1.15,5.43441776375337
1.156,5.32772414931704
1.162,5.17123167547107
1.168,4.99922877288322
1.174,4.8079220273232
1.18,4.66555120988252
1.186,4.48800243405283
1.192,4.33179877686734
1.198,4.13428082247354
1.204,3.9682670510353
1.21,3.75389589036433
1.216,3.66801906025139
1.222,3.50705428395113
1.228,3.35396847719438
1.234,3.20559136688594
1.24,3.06148951509771
1.246,2.92163608606822
1.252,2.78612721720251
1.258,2.65510864574534
1.264,2.52871491307274
1.27,2.40686096043363
1.276,2.28757368835516
1.282,2.17592642917469
1.288,2.06750819260196
1.294,1.96325730294252
1.3,1.86333211403292
1.306,1.76765813300651
1.312,1.67613880126793
1.318,1.58892678096713
1.324,1.50542854769845
1.33,1.42594799947225
1.336,1.35031322818678
1.342,1.27844471921819
1.348,1.21037394174897
1.354,1.14491480261674
1.36,1.08399422568784
1.366,1.02618421007335
1.372,0.97162838731702
1.378,0.920261545113222
1.384,0.87200777917786
1.39,0.82679785871871
1.396,0.784583167013708
1.402,0.745368571802747
1.408,0.709327660984939
1.414,0.677439358418602
1.42,0.664007692930275
1.426,0.598513783915729
1.432,0.578246722170781
1.438,0.555096784192097
1.444,0.533170203341875
1.45,0.51299178390117
1.456,0.494659522290051
1.462,0.478165410011347
1.468,0.463465618363009
1.474,0.450502191856655
1.48,0.439211314093215
1.486,0.429526942811816
1.492,0.421382585494807
1.498,0.414712238565891
1.504,0.409450915179632
1.51,0.405534955226845
1.516,0.402902212612718
1.522,0.401492169476873
1.528,0.4012460047355
1.534,0.402106632767849
1.54,0.404018721789362
1.546,0.406928697898848
1.552,0.410784738699936
1.558,0.41553675913053
1.564,0.419103828495023
1.57,0.417524942547519
1.576,0.416969992309739
1.582,0.417430087346589
1.588,0.418896525935362
1.594,0.421360780208208
1.6,0.424814480593944
1.606,0.429249399435473
1.612,0.434657433643124
1.618,0.441030586225254
1.624,0.448360946514671
1.63,0.456640668882111
1.636,0.465861949694682
1.642,0.476017002236303
1.648,0.487098029256608
1.654,0.499097192751219
1.66,0.51200658049623
1.666,0.525818168756793
1.672,0.540523780456621
1.678,0.556115037920649
1.684,0.572583309071288
1.69,0.589919645646995
1.696,0.608114711587341
1.702,0.627158699142304
1.708,0.647041229442704
1.714,0.667751233102307
1.72,0.689276804739794
1.726,0.711605022842716
1.732,0.734721722717506
1.738,0.75861120468088
1.744,0.783255850982183
1.75,0.808635611205832
1.756,0.834727293570749
1.762,0.861503562229026
1.768,0.888931476342192
1.774,0.916970291822899
1.78,0.945568032882052
1.786,0.974655923575893
1.792,1.00413890968444
1.798,1.03387860613262
1.804,1.06366047664794
1.81,1.09312508326963
1.816,1.12160721835847
1.822,1.14769748806556
1.828,1.16774229309055
1.834,1.16825475544125
1.84,1.02310628968502
1.846,1.57279440784214
1.852,1.44864620125352
1.858,1.45282388563054
1.864,1.47641575319032
1.87,1.50683446372101
1.876,1.54059976144943
1.882,1.57635861394507
1.888,1.61347348900238
1.894,1.65160510632087
1.9,1.69055863248712
1.906,1.73021810701737
1.912,1.77051554914711
1.918,1.81141541862231
1.924,1.85290655381184
1.93,1.89499806826105
1.936,1.93771751774992
1.942,1.98111047528595
1.948,2.02524103129928
1.954,2.07019289092124
1.96,2.1160707596603
1.966,2.1630016334727
1.972,2.21113546812148
1.978,2.26064453697831
1.984,2.31172066518956
1.99,2.36456955195952
1.996,2.41940167378913
2.002,2.47641987214729
2.008,2.53580462707532
2.014,2.59769898879019
2.02,2.66219581558175
2.026,2.72932996954388
2.032,2.79907727936739
2.038,2.87136058434496
2.044,2.94606154384349
2.05,3.02303572419369
2.056,3.1021281239836
2.062,3.18318675223569
2.068,3.26607281191465
2.074,3.35066705503196
2.08,3.43687266142411
2.086,3.52461542983803
2.092,3.6138421882146
2.098,3.70451823612419
2.104,3.79662443922133
2.11,3.89015438692444
2.116,3.98511184653527
2.122,4.08150861624634
2.128,4.18225109035514
2.134,4.28840688893583
2.14,4.39749657537566
2.146,4.50958662930321
2.152,4.62474138480078
2.158,4.74302230458699
2.164,4.86448712778454
2.17,4.9891888709922
2.176,5.11717465933865
2.182,5.24848436078325
2.188,5.38314899313034
2.194,5.52118886902893
2.2,5.66261143962108
2.206,5.80740879242929
2.212,5.95555475333634
2.218,6.10700153548349
2.224,6.26167586761706
2.23,6.419474514589
2.236,6.58025905194769
2.242,6.74384959134211
2.248,6.91001647273428
2.254,7.07846504797456
2.26,7.24876699370277
2.266,7.42541885473953
2.272,7.59452482939168
2.278,7.76799003238754
2.284,7.94136831762961
2.29,8.11381190724925
2.296,8.28440979856794
2.302,8.45213735254924
2.308,8.61584466095561
2.314,8.77425214037674
2.32,8.92594750632318
2.326,9.0693649559032
2.332,9.20248318844684
2.338,9.32794235656947
2.344,9.43563373235314
2.35,9.52974070919293
2.356,9.60751782391583
2.362,9.66738049063369
2.368,9.7080010088005
2.374,9.72831372328871
2.38,9.72755726131664
2.386,9.70531210537695
2.392,9.66152496352256
2.398,9.59652235923329
2.404,9.51115121246413
2.41,9.40541416937967
2.416,9.2820064499725
2.422,9.14165474428451
2.428,8.98606953686527
2.434,8.81698724038504
2.44,8.63616952108889
2.446,8.44535186134737
2.452,8.24618702656519
2.458,8.04017822645082
2.464,7.82862567078617
2.47,7.61288799084636
2.476,7.39518607906384
2.482,7.17726885294105
2.488,6.95931580841631
2.494,6.74174012807497
2.5,6.52527192210054
2.506,6.31061065292149
2.512,6.09834725614074
2.518,5.88896853475006
2.524,5.68287176133798
2.53,5.4803777450251
2.536,5.28174162283641
2.542,5.08716190727048
2.548,4.8967882294031
2.554,4.71072805286393
2.56,4.52905253410814
2.566,4.35180165133843
2.572,4.17898869609163
2.578,4.01060420512029
2.584,3.84661939945023
2.59,3.68698918943484
2.596,3.53165479794257
2.602,3.38054604794045
2.608,3.23358335544882
2.614,3.09067946405191
2.62,2.95174095282133
2.626,2.81666954562359
2.632,2.68536324631785
2.638,2.55771732128006
2.644,2.43362514798552
2.65,2.31297894600958
2.656,2.19567040473281
2.662,2.08159122022829
2.668,1.97063355223188
2.674,1.86269041072308
2.68,1.75765598044395
2.686,1.65542589063498
2.692,1.5558974363439
2.698,1.45896975684988
2.704,1.3645439760212
2.71,1.27252330877519
2.716,1.18281313722123
2.722,1.09532105952889
2.728,1.00995691406286
2.734,0.926632780855686
2.74,0.845262962040251
2.746,0.765763942430791
2.752,0.688054331019074
2.758,0.612054783741721
2.764,0.537687907476204
2.77,0.464878144848541
2.776,0.393551639099634
2.782,0.323636077992135
2.788,0.255060515590322
2.794,0.187755170783192
2.8,0.121651201745574
2.806,0.0566804562825524
2.812,-0.00722480063696329
2.818,-0.0701321786503309
2.824,-0.132109466252497
2.83,-0.193224935990327
2.836,-0.253547632697067
2.842,-0.313147618747308
2.848,-0.372096140646858
2.854,-0.430465670803879
2.86,-0.488329768637948
2.866,-0.545762698965634
2.872,-0.602838746791212
2.878,-0.65963118115617
2.884,-0.716210851546677
2.89,-0.772644451723334
2.896,-0.828992556453454
2.902,-0.885307617907171
2.908,-0.941632183011482
2.914,-0.997997636367136
2.92,-1.05442376036326
2.926,-1.11091931964544
2.932,-1.1674837261827
2.938,-1.22410965365667
2.944,-1.28078629392939
2.95,-1.33750283380053
2.956,-1.39425170901786
2.962,-1.45103126588186
2.968,-1.5078476006797
2.974,-1.56471550950809
2.98,-1.6216586235642
2.986,-1.67870890068022
2.992,-1.73590568523108
2.998,-1.7932945437051
3.004,-1.85092604833816
3.01,-1.90885463314743
3.016,-1.9671375985484
3.022,-2.02583430029991
3.028,-2.08500552888065
3.034,-2.14471306640942
3.04,-2.20501939802661
3.046,-2.26598755085232
3.052,-2.32768103396435
3.058,-2.39016385549027
3.064,-2.45350059659356
3.07,-2.51775652603045
3.076,-2.58299774258933
3.082,-2.64929133587153
3.088,-2.71670555846163
3.094,-2.78531000458165
3.1,-2.85517579189097
3.106,-2.92637574425702
3.112,-2.99898457416092
3.118,-3.07307906398466
3.124,-3.14873824581202
3.13,-3.22604357961141
3.136,-3.30507912979075
3.142,-3.38593174014983
3.148,-3.4686912072243
3.154,-3.55345045193025
3.16,-3.64030568928756
3.166,-3.72935659582723
3.172,-3.82070647407543
3.178,-3.91446241324973
3.184,-4.01073544499865
3.19,-4.10964069265463
3.196,-4.21129751204428
3.202,-4.31582962139276
3.208,-4.42336521725739
3.214,-4.53403707270602
3.22,-4.64798261309515
3.226,-4.76534396376836
3.232,-4.88626796275126
3.238,-5.01090613001757
3.244,-5.13941458308595
3.25,-5.27195388651059
3.256,-5.4072106758459
3.262,-5.54674264216299
3.268,-5.6907224505021
3.274,-5.83933060479985
3.28,-5.99275491441299
3.286,-6.15118968967223
3.292,-6.31483459579481
3.298,-6.48389307781324
3.304,-6.6585702487765
3.31,-6.83907010861762
3.316,-7.02559193094748
3.322,-7.2183256187932
3.328,-7.41744578716375
3.334,-7.62310427973791
3.34,-7.83542076886765
3.346,-8.05447102338006
3.352,-8.28027235996553
3.358,-8.51276572673408
3.364,-8.75179381186733
3.37,-8.99707454327956
3.376,-9.24816937430455
3.382,-9.50444587769181
3.388,-9.76503445683882
3.394,-10.0287795132095
3.4,-10.294186288725
3.406,-10.5593659504663
3.412,-10.8219834049945
3.418,-11.0792148480981
3.424,-11.3277250233064
3.43,-11.5636771121584
3.436,-11.7827901818509
3.442,-11.980458728399
3.448,-12.1519443272034
3.454,-12.2926393322966
3.46,-12.398386995659
3.466,-12.4658239780039
3.472,-12.4926956199448
3.478,-12.4780886284309
3.484,-12.4225351680644
3.49,-12.3279663313723
3.496,-12.1975245118469
3.502,-12.0352724611842
3.508,-11.8458525837202
3.514,-11.6341500828613
3.52,-11.4050011691425
3.526,-11.162969449357
3.532,-10.9121963728514
3.538,-10.6563191414242
3.544,-10.3984427944571
3.55,-10.1411512975384
3.556,-9.88654367591429
3.562,-9.63628392903192
3.568,-9.39165649575428
3.574,-9.15362177060358
3.58,-8.92286833866411
3.586,-8.69986016986174
3.592,-8.48487807302186
3.598,-8.27805537320009
3.604,-8.07940815544195
3.61,-7.88886060758366
3.616,-7.70626606384098
3.622,-7.53142434878911
3.628,-7.36409598055872
3.634,-7.20401373335582
3.64,-7.05089199522118
3.646,-6.90443429430442
3.652,-6.76433930943116
3.658,-6.63030562989082
3.664,-6.50203548546492
3.67,-6.37923763040423
3.676,-6.26162953369406
3.682,-6.14893900175899
3.688,-6.04090533799562
3.694,-5.93728012548374
3.7,-5.83782770429786
3.706,-5.74232540249052
3.712,-5.65056356960143
3.718,-5.56234545308784
3.724,-5.4774869510658
3.73,-5.39581626894329
3.736,-5.31717350270695
3.742,-5.24141016762354
3.748,-5.16838868779322
3.754,-5.09798185922932
3.76,-5.03007229684305
3.766,-4.96455187380183
3.772,-4.90132116014249
3.778,-4.84028886620029
3.784,-4.78137129531728
3.79,-4.72449180938155
3.796,-4.66958030999035
3.802,-4.61657273740051
3.808,-4.5654105889059
3.814,-4.51604045784649
3.82,-4.46841359409252
3.826,-4.42248548654616
3.832,-4.37821546795349
3.838,-4.33556634211147
3.844,-4.29450403338159
3.85,-4.25499725827763
3.856,-4.21701721877555
3.862,-4.18053731689324
3.868,-4.14553289000561
3.874,-4.11198096629205
3.88,-4.07986003965699
3.886,-4.0491498634186
3.892,-4.019831262024
3.898,-3.99188596002041
3.904,-3.96529642748981
3.91,-3.94004574113898
3.916,-3.91611746022658
3.922,-3.89349551650391
3.928,-3.87216411734544
3.934,-3.85210766124889
3.94,-3.83331066489231
3.946,-3.81575770094652
3.952,-3.79943334585609
3.958,-3.78432213681876
3.964,-3.77040853721393
3.97,-3.75767690975281
3.976,-3.74611149664761
3.982,-3.73569640612367
3.988,-3.72641560462652
3.994,-3.71825291410496
4,-3.71119201378225
4.006,-3.70521644585819
4.012,-3.70030962461721
4.018,-3.6964548484493
4.024,-3.69363531432317
4.03,-3.69183413428279
4.036,-3.69103435357051
4.042,-3.6912189700109
4.048,-3.69237095432013
4.054,-3.69447327103533
4.06,-3.69750889978707
4.066,-3.70146085666566
4.072,-3.70631221545845
4.078,-3.71204612856039
4.084,-3.71864584738409
4.09,-3.72609474211772
4.096,-3.73437632070072
4.102,-3.74347424690636
4.108,-3.75337235743887
4.114,-3.76405467796953
4.12,-3.77550543805171
4.126,-3.78770908486888
4.132,-3.80065029578261
4.138,-3.81431398965925
4.144,-3.82868533696421
4.15,-3.8437497686223
4.156,-3.85949298365075
4.162,-3.87590095557871
4.168,-3.89295993767349
4.174,-3.91065646699904
4.18,-3.928977367337
4.186,-3.94790975100443
4.192,-3.96744101960556
4.198,-3.98755886375751
4.204,-4.00825126183215
4.21,-4.02950647775744
4.216,-4.0513130579233
4.222,-4.07365982723719
4.228,-4.09653588437548
4.234,-4.11993059627655
4.24,-4.14383359192139
4.246,-4.16823475544741
4.252,-4.19312421864024
4.258,-4.218492352848
4.264,-4.24432976036156
4.27,-4.27062726530349
4.276,-4.2973759040674
4.282,-4.32456691534868
4.288,-4.35219172980617
4.294,-4.38024195939393
4.3,-4.40870938640064
4.306,-4.43758595223375
4.312,-4.46686374598415
4.318,-4.49653499280652
4.324,-4.52659204214949
4.33,-4.55702735586893
4.336,-4.587833496257
4.342,-4.61900311401889
4.348,-4.65052893622844
4.354,-4.68240375429313
4.36,-4.71462041195873
4.366,-4.74717179338292
4.372,-4.78005081130699
4.378,-4.81325039535433
4.384,-4.84676348048379
4.39,-4.88058299562584
4.396,-4.91470185252892
4.402,-4.94911293484328
4.408,-4.98380908746891
4.414,-5.01878310619424
4.42,-5.05402772765168
4.426,-5.08953561961572
4.432,-5.12529937166921
4.438,-5.16131148626272
4.444,-5.19756437019159
4.45,-5.23405032651497
4.456,-5.27076154694014
4.462,-5.30769010469555
4.468,-5.3448279479146
4.474,-5.38216689355204
4.48,-5.41969862185388
4.486,-5.45741467140067
4.492,-5.49530643474337
4.498,-5.53336515464969
4.504,-5.57158192097793
4.51,-5.60994766819378
4.516,-5.64845317354445
4.522,-5.68708905590306
4.528,-5.72584577529447
4.534,-5.76471363311235
4.54,-5.80368277303541
4.546,-5.84274318264881
4.552,-5.88188469577506
4.558,-5.92109699551652
4.564,-5.96036961800944
4.57,-5.99969195688757
4.576,-6.03905326845088
4.582,-6.07844267753257
4.588,-6.11784918405545
4.594,-6.15726167026599
4.6,-6.19666890863221
4.606,-6.23605957038877
4.612,-6.27542223471049
4.618,-6.31474539849266
4.624,-6.35401748671433
4.63,-6.39322686335813
4.636,-6.4323618428579
4.642,-6.47141070204289
4.648,-6.51036169254534
4.654,-6.5492030536356
4.66,-6.58792302544741
4.666,-6.62650986255355
4.672,-6.66495184785064
4.678,-6.70323730670982
4.684,-6.74135462134891
4.69,-6.77929224538017
4.696,-6.81703871848639
4.702,-6.85458268117781
4.708,-6.89191288958071
4.714,-6.92901823020893
4.72,-6.96588773466855
4.726,-7.00251059424652
4.732,-7.03887617433377
4.738,-7.07497402863404
4.744,-7.11079391311033
4.75,-7.14632579962158
4.756,-7.18155988920367
4.762,-7.21648662494999
4.768,-7.25109670444837
4.774,-7.28538109173344
4.78,-7.3193310287149
4.786,-7.35293804604502
4.792,-7.38619397339062
4.798,-7.41909094907778
4.804,-7.45162142908
4.81,-7.48377819532348
4.816,-7.51555436328627
4.822,-7.54694338887108
4.828,-7.57793907453462
4.834,-7.60853557465979
4.84,-7.63872740015998
4.846,-7.66850942230849
4.852,-7.69787687578878
4.858,-7.72682536096504
4.864,-7.75535084537538
4.87,-7.78344966445339
4.876,-7.8111185214865
4.882,-7.83835448682305
4.888,-7.86515499634209
4.894,-7.89151784920348
4.9,-7.91744120489753
4.906,-7.9429235796165
4.912,-7.96796384197217
4.918,-7.99256120808567
4.924,-8.01671523607777
4.93,-8.04042581998942
4.936,-8.06369318316373
4.942,-8.08651787112182
4.948,-8.10890074396611
4.954,-8.13084296834529
4.96,-8.1523460090161
4.966,-8.17341162003708
4.972,-8.19404183563028
4.978,-8.21423896074634
4.984,-8.23400556136874
4.99,-8.25334445459242
4.996,-8.27225869851178
5.002,-8.29075158195216
5.008,-8.30882661407841
5.014,-8.32648751391332
5.02,-8.34373819979733
5.026,-8.36058277882031
5.032,-8.37702553625477
5.038,-8.39307092501853
5.044,-8.40872355519376
5.05,-8.42398818362762
5.056,-8.43886970363865
5.062,-8.45337313485116
5.068,-8.46750361317871
5.074,-8.48126638097603
5.08,-8.49466677737732
5.086,-8.50771022883732
5.092,-8.5204022398899
5.098,-8.53274838413769
5.104,-8.54475429548454
5.11,-8.55642565962123
5.116,-8.56776820577365
5.122,-8.57878769872099
5.128,-8.58948993109041
5.134,-8.59988071593338
5.14,-8.60996587958753
5.146,-8.61975125482694
5.152,-8.62924267430249
5.158,-8.63844596427308
5.164,-8.64736693862739
5.17,-8.65601139319503
5.176,-8.66438510034524
5.182,-8.67249380387017
5.188,-8.68034321414954
5.194,-8.68793900359235
5.2,-8.69528680235113
5.206,-8.70239219430341
5.212,-8.70926071329477
5.218,-8.71589783963741
5.224,-8.72230899685761
5.23,-8.72849954868544
5.236,-8.7344747962797
5.242,-8.74023997568055
5.248,-8.74580025548275
5.254,-8.75116073472149
5.26,-8.75632644096349
5.266,-8.76130232859528
5.272,-8.76609327730107
5.278,-8.77070409072223
5.284,-8.77513949529069
5.29,-8.77940413922846
5.296,-8.78350259170565
5.302,-8.78743934214919
5.308,-8.79121879969519
5.314,-8.79484529277708
5.32,-8.79832306884273
5.326,-8.80165629419327
5.332,-8.8048490539368
5.338,-8.80790535205027
5.344,-8.81082911154299
5.35,-8.81362417471543
5.356,-8.81629430350721
5.362,-8.81884317992827
5.368,-8.82127440656756
5.374,-8.82359150717367
5.38,-8.8257979273021
5.386,-8.82789703502405
5.392,-8.82989212169184
5.398,-8.83178640275623
5.404,-8.83358301863115
5.41,-8.83528503560158
5.416,-8.83689544677047
5.422,-8.83841717304069
5.428,-8.83985306412849
5.434,-8.84120589960483
5.44,-8.84247838996119
5.446,-8.84367317769683
5.452,-8.84479283842438
5.458,-8.84583988199101
5.464,-8.84681675361247
5.47,-8.84772583501754
5.476,-8.84856944560051
5.482,-8.84934984357937
5.488,-8.85006922715795
5.494,-8.85072973568962
5.5,-8.85133345084116
5.506,-8.85207041368733
5.512,-8.85261152164376
5.518,-8.85295660944312
5.524,-8.85310557801364
5.53,-8.853058394859
5.536,-8.85281509438558
5.542,-8.85237577817657
5.548,-8.85174061521213
5.554,-8.8509098420355
5.56,-8.84988376286452
5.566,-8.84866274964838
5.572,-8.84724724206938
5.578,-8.84563774748976
5.584,-8.84383484084344
5.59,-8.84183916447292
5.596,-8.83965142791149
5.602,-8.837272407611
5.608,-8.83470294661568
5.614,-8.83194395418234
5.62,-8.82899640534762
5.626,-8.82586134044283
5.632,-8.82253986455722
5.638,-8.81903314695035
5.644,-8.81534242041459
5.65,-8.81146898058857
5.656,-8.80741418522272
5.662,-8.80317945339801
5.668,-8.79876626469894
5.674,-8.79417615834228
5.68,-8.78941073226254
5.686,-8.78447164215586
5.692,-8.77936060048353
5.698,-8.77407937543668
5.704,-8.76862978986378
5.71,-8.76301372016224
5.716,-8.75723309513617
5.722,-8.75128989482141
5.728,-8.74518614928007
5.734,-8.7389239373658
5.74,-8.73250538546198
5.746,-8.72593266619416
5.752,-8.71920799711898
5.758,-8.71233363939093
5.764,-8.70531189640914
5.77,-8.69814511244571
5.776,-8.69083567125763
5.782,-8.68338599468395
5.788,-8.67579854123002
5.794,-8.66807580464074
5.8,-8.66022031246444
5.806,-8.6522346246092
5.812,-8.6441213318935
5.818,-8.63588305459271
5.824,-8.62752244098328
5.83,-8.61904216588631
5.836,-8.61044492921203
5.842,-8.60173345450691
5.848,-8.59291048750498
5.854,-8.58397879468478
5.86,-8.5749411618336
5.866,-8.56580039262036
5.872,-8.55655930717857
5.878,-8.54722074070073
5.884,-8.53778754204553
5.89,-8.52826257235908
5.896,-8.51864870371141
5.902,-8.50894881774935
5.908,-8.4991658043671
5.914,-8.48930256039523
5.92,-8.47936198830953
5.926,-8.46934699496026
5.932,-8.45926049032307
5.938,-8.44910538627218
5.944,-8.43888459537672
5.95,-8.42860102972107
5.956,-8.41825759974969
5.962,-8.40785721313724
5.968,-8.39740277368456
5.974,-8.38689718024092
5.98,-8.37634332565325
5.986,-8.36574409574247
5.992,-8.35510236830772
5.998,-8.34442101215833
6.004,-8.33370288617427
6.01,-8.32295083839505
6.016,-8.31216770513734
6.022,-8.30135631014145
6.028,-8.29051946374681
6.034,-8.27965996209646
6.04,-8.26878058637065
6.046,-8.25788410204939
6.052,-8.24697325820413
6.058,-8.2360507868182
6.064,-8.2251194021361
6.07,-8.21418180004144
6.076,-8.20324065746315
6.082,-8.1922986318101
6.088,-8.18135836043347
6.094,-8.17042246011691
6.1,-8.15949352659401
