"Freq [GHz]","dB(St(1,2)) []"
1,-9.6348963326173
1.006,-9.67940032120149
1.012,-9.72930996789372
1.018,-9.78306947935836
1.024,-9.83911071275429
1.03,-9.89591828573135
1.036,-9.95208783859227
1.042,-10.006373641086
1.048,-10.0577232033826
1.054,-10.1052980695019
1.06,-10.1484813170056
1.066,-10.1868733123839
1.072,-10.2202779172374
1.078,-10.2486816203189
1.084,-10.2722280493309
1.09,-10.2911900823981
1.096,-10.3059414220658
1.102,-10.3169290905719
1.108,-10.3246479093194
1.114,-10.3296176717081
1.12,-10.332363422374
1.126,-10.333399020052
1.132,-10.3332139806844
1.138,-10.3322634636682
1.144,-10.3309611685353
1.15,-10.32967484434
1.156,-10.3287240737603
1.162,-10.3283799740789
1.168,-10.328866454514
1.174,-10.3303626810556
1.18,-10.3330064233739
1.186,-10.3368979908357
1.192,-10.3421045034548
1.198,-10.3486642861275
1.204,-10.3565912185182
1.21,-10.3658789169414
1.216,-10.3765046681549
1.222,-10.3884330798595
1.228,-10.4016194647543
1.234,-10.4160130498396
1.24,-10.4315602419549
1.246,-10.4482085054314
1.252,-10.4659123179129
1.258,-10.4846457298408
1.264,-10.5044390245742
1.27,-10.5255356160927
1.276,-10.549742789662
1.282,-10.5636682928035
1.288,-10.5843893070376
1.294,-10.6088204364572
1.3,-10.6328654261502
1.306,-10.6571356786034
1.312,-10.6817508850323
1.318,-10.7067316403994
1.324,-10.7320695163492
1.33,-10.7577462696537
1.336,-10.7837405182758
1.342,-10.8100304179374
1.348,-10.8365948230513
1.354,-10.8634137988885
1.36,-10.8904688305151
1.366,-10.9177428810636
1.372,-10.9452203723771
1.378,-10.9728871253375
1.384,-11.0007302799368
1.39,-11.0287382063026
1.396,-11.056900413109
1.402,-11.0852074571078
1.408,-11.1136508559328
1.414,-11.1422230053795
1.42,-11.1709171017726
1.426,-11.1997270696676
1.432,-11.2286474949
1.438,-11.2576735628511
1.444,-11.286801001712
1.45,-11.3160260304743
1.456,-11.3453453113513
1.462,-11.3747559063215
1.468,-11.4042552374887
1.474,-11.433841050959
1.48,-11.4635113839492
1.486,-11.4932645348552
1.492,-11.5230990360262
1.498,-11.553013629008
1.504,-11.5830072420354
1.51,-11.6130789695722
1.516,-11.6432280537111
1.522,-11.6734538672652
1.528,-11.703755898393
1.534,-11.7341337366167
1.54,-11.7645870601026
1.546,-11.795115624087
1.552,-11.8257192503404
1.558,-11.8563978175732
1.564,-11.8871512526939
1.57,-11.9179795228422
1.576,-11.9488826281233
1.582,-11.979860594979
1.588,-12.0109134701367
1.594,-12.0420413150834
1.6,-12.0732442010162
1.606,-12.1045222042272
1.612,-12.1358754018826
1.618,-12.1673038681623
1.624,-12.1988076707274
1.63,-12.2303868674885
1.636,-12.2620415036483
1.642,-12.2937716089972
1.648,-12.3255771954404
1.654,-12.3574582547394
1.66,-12.3894147564517
1.666,-12.421446646054
1.672,-12.4535538432372
1.678,-12.4857362403617
1.684,-12.5179937010639
1.69,-12.5503260590046
1.696,-12.5827331167535
1.702,-12.6152146448028
1.708,-12.647770380705
1.714,-12.6804000283304
1.72,-12.7131032572416
1.726,-12.7458797021811
1.732,-12.7787289626712
1.738,-12.8116506027234
1.744,-12.8446441506569
1.75,-12.8777090990257
1.756,-12.9108449046539
1.762,-12.9440509887788
1.768,-12.9773267373034
1.774,-13.0106715011568
1.78,-13.0440845967653
1.786,-13.0775653066337
1.792,-13.111112880037
1.798,-13.1447265338245
1.804,-13.1784054533358
1.81,-13.2121487934289
1.816,-13.2459556796219
1.822,-13.2798252093452
1.828,-13.313756453307
1.834,-13.3477484569683
1.84,-13.3818002421273
1.846,-13.4159108086099
1.852,-13.4500791360655
1.858,-13.4843041858628
1.864,-13.5185849030819
1.87,-13.5529202185992
1.876,-13.5873090512585
1.882,-13.6217503101215
1.888,-13.6562428967919
1.894,-13.6907857078046
1.9,-13.7253776370703
1.906,-13.7600175783681
1.912,-13.7947044278736
1.918,-13.8294370867127
1.924,-13.8642144635293
1.93,-13.8990354770538
1.936,-13.9338990586604
1.942,-13.9688041548993
1.948,-14.0037497299892
1.954,-14.0387347682578
1.96,-14.0737582765138
1.966,-14.1088192863375
1.972,-14.1439168562751
1.978,-14.179050073922
1.984,-14.2142180578826
1.99,-14.2494199595907
1.996,-14.2846549649811
2.002,-14.3199222959964
2.008,-14.355221211921
2.014,-14.3905510105301
2.02,-14.4259110290451
2.026,-14.4613006448875
2.032,-14.4967192762252
2.038,-14.5321663823041
2.044,-14.567641463564
2.05,-14.6031440615346
2.056,-14.6386737585118
2.062,-14.6742301770149
2.068,-14.7098129790278
2.074,-14.7454218650286
2.08,-14.7810565728121
2.086,-14.8167168761141
2.092,-14.8524025830448
2.098,-14.8881135343427
2.104,-14.9238496014586
2.11,-14.9596106844841
2.116,-14.9953967099358
2.122,-15.0312076284117
2.128,-15.0670434121324
2.134,-15.1029040523853
2.14,-15.1387895568845
2.146,-15.1746999470662
2.152,-15.2106352553319
2.158,-15.2465955222596
2.164,-15.2825807937951
2.17,-15.3185911184425
2.176,-15.3546265444663
2.182,-15.3906871171211
2.188,-15.4267728759228
2.194,-15.4628838519731
2.2,-15.4990200653509
2.206,-15.535181522581
2.212,-15.5713682141904
2.218,-15.6075801123611
2.224,-15.643817168688
2.23,-15.6800793120488
2.236,-15.7163664465906
2.242,-15.75267844984
2.248,-15.7890151709387
2.254,-15.8253764290077
2.26,-15.8617620116424
2.266,-15.8981716735392
2.272,-15.9346051352521
2.278,-15.9710620820802
2.284,-16.0075421630836
2.29,-16.0440449902246
2.296,-16.0805701376321
2.302,-16.1171171409848
2.308,-16.1536854970098
2.314,-16.1902746630906
2.32,-16.2268840569821
2.326,-16.2635130566238
2.332,-16.3001610000497
2.338,-16.3368271853856
2.344,-16.3735108709308
2.35,-16.4102112753169
2.356,-16.4469275777382
2.362,-16.4836589182482
2.368,-16.5204043981163
2.374,-16.5571630802387
2.38,-16.5939339895988
2.386,-16.6307161137712
2.392,-16.6675084034645
2.398,-16.7043097730975
2.404,-16.7411191014052
2.41,-16.7779352320689
2.416,-16.8147569743673
2.422,-16.8515831038438
2.428,-16.8884123629874
2.434,-16.9252434619225
2.44,-16.9620750791061
2.446,-16.9989058620284
2.452,-17.035734427914
2.458,-17.0725593644232
2.464,-17.1093792303491
2.47,-17.1461925563103
2.476,-17.1829978454372
2.482,-17.2197935740501
2.488,-17.2565781923288
2.494,-17.2933501249726
2.5,-17.3301077718494
2.506,-17.3668495086345
2.512,-17.4035736874379
2.518,-17.4402786374211
2.524,-17.4769626654018
2.53,-17.5136240564487
2.536,-17.5502610744654
2.542,-17.5868719627649
2.548,-17.6234549446342
2.554,-17.6600082238918
2.56,-17.6965299854371
2.566,-17.7330183957935
2.572,-17.7694716036475
2.578,-17.8058877403836
2.584,-17.842264920617
2.59,-17.8786012427262
2.596,-17.9148947893868
2.602,-17.9511436281084
2.608,-17.9873458117758
2.614,-18.023499379198
2.62,-18.0596023556662
2.626,-18.0956527535226
2.632,-18.1316485727439
2.638,-18.1675878015402
2.644,-18.2034684169735
2.65,-18.2392883855972
2.656,-18.2750456641202
2.662,-18.3107382000991
2.668,-18.3463639326601
2.674,-18.3819207932554
2.68,-18.4174067064566
2.686,-18.4528195907893
2.692,-18.4881573596122
2.698,-18.5234179220448
2.704,-18.5585991839483
2.71,-18.593699048963
2.716,-18.6287154196076
2.722,-18.6636461984454
2.728,-18.6984892893213
2.734,-18.7332425986759
2.74,-18.7679040369413
2.746,-18.8024715200259
2.752,-18.836942970892
2.758,-18.8713163212351
2.764,-18.9055895132698
2.77,-18.9397605016301
2.776,-18.9738272553914
2.782,-19.0077877602224
2.788,-19.0416400206744
2.794,-19.0753820626173
2.8,-19.1090119358313
2.806,-19.1425277167633
2.812,-19.1759275114595
2.818,-19.2092094586825
2.824,-19.2423717332268
2.83,-19.275412549442
2.836,-19.308330164978
2.842,-19.3411228847634
2.848,-19.3737890652318
2.854,-19.4063271188107
2.86,-19.4387355186867
2.866,-19.4710128038632
2.872,-19.5031575845287
2.878,-19.5351685477498
2.884,-19.5670444635111
2.89,-19.5987841911166
2.896,-19.6303866859769
2.902,-19.6618510067993
2.908,-19.6931763232047
2.914,-19.7243619237929
2.92,-19.7554072246811
2.926,-19.7863117785379
2.932,-19.817075284141
2.938,-19.8476975964832
2.944,-19.8781787374546
2.95,-19.9085189071298
2.956,-19.9387184956887
2.962,-19.9687780960021
2.968,-19.9986985169114
2.974,-20.0284807972357
2.98,-20.0581262205383
2.986,-20.0876363306848
2.992,-20.1170129482272
2.998,-20.1462581876472
3.004,-20.1753744754926
3.01,-20.204364569441
3.016,-20.2332315783231
3.022,-20.2619789831404
3.028,-20.2906106591066
3.034,-20.319130898746
3.04,-20.3475444360755
3.046,-20.3758564718986
3.052,-20.4040727002341
3.058,-20.4321993359008
3.064,-20.4602431432736
3.07,-20.4882114662247
3.076,-20.5161122592527
3.082,-20.5439541198018
3.088,-20.5717463217604
3.094,-20.5994988501222
3.1,-20.6272224367824
3.106,-20.6549285974286
3.112,-20.6826296694745
3.118,-20.7103388509676
3.124,-20.7380702403877
3.13,-20.7658388772315
3.136,-20.7936607832604
3.142,-20.8215530042634
3.148,-20.8495336521627
3.154,-20.8776219472618
3.16,-20.9058382604035
3.166,-20.9342041547752
3.172,-20.9627424270596
3.178,-20.9914771475927
3.184,-21.0204336991486
3.19,-21.0496388139267
3.196,-21.0791206082706
3.202,-21.1089086145993
3.208,-21.1390338099815
3.214,-21.1695286407302
3.22,-21.2004270423433
3.226,-21.2317644540614
3.232,-21.2635778272624
3.238,-21.2959056268602
3.244,-21.3287878248253
3.25,-21.3622658849032
3.256,-21.3964415620153
3.262,-21.4314348474809
3.268,-21.4672993841937
3.274,-21.5040916043104
3.28,-21.5418708417292
3.286,-21.5806994458474
3.292,-21.6206428961942
3.298,-21.6617699174779
3.304,-21.7041525945344
3.31,-21.747866486603
3.316,-21.7929907402968
3.322,-21.8396082005741
3.328,-21.8878055189602
3.334,-21.93767325821
3.34,-21.9893059925492
3.346,-22.0428024025832
3.352,-22.0982653639238
3.358,-22.1558020285512
3.364,-22.2155238979137
3.37,-22.277546886763
3.376,-22.3419913767413
3.382,-22.4089822587764
3.388,-22.478648963406
3.394,-22.5511254782502
3.4,-22.6265503519796
3.406,-22.7050666842993
3.412,-22.7868221016765
3.418,-22.8719687188005
3.424,-22.9606630860687
3.43,-23.0530661237522
3.436,-23.149343043909
3.442,-23.2496632615801
3.448,-23.3542002973318
3.454,-23.4631316737866
3.46,-23.5766388094233
3.466,-23.6949069136104
3.472,-23.8181248875752
3.478,-23.9464852367876
3.484,-24.0801840010565
3.49,-24.2194207094876
3.496,-24.3643983683344
3.502,-24.5153234906829
3.508,-24.6724061778447
3.514,-24.8358602632978
3.52,-25.0059035310135
3.526,-25.1827580210501
3.532,-25.3666504364116
3.538,-25.5578126663698
3.544,-25.7564824427947
3.55,-25.962904147561
3.556,-26.1773297908781
3.562,-26.400020182515
3.568,-26.6312463204559
3.574,-26.8712910246842
3.58,-27.1204508477031
3.586,-27.3790382982885
3.592,-27.6473844210966
3.598,-27.9258417824486
3.604,-28.214787922325
3.61,-28.5146293448617
3.616,-28.8258061351596
3.622,-29.1487973099236
3.628,-29.4841270345437
3.634,-29.8323718713475
3.64,-30.1941692650492
3.646,-30.5702275248641
3.652,-30.9613376323883
3.658,-31.3683872957959
3.664,-31.7923777920799
3.67,-32.2344443011613
3.676,-32.6958806548736
3.682,-33.1781697236018
3.688,-33.6830210785348
3.694,-34.2124181503517
3.7,-34.7686779355856
3.706,-35.3545275041472
3.712,-35.9732033326745
3.718,-36.628582148001
3.724,-37.3253560430162
3.73,-38.0692710248425
3.736,-38.8674584478869
3.742,-39.7289058069172
3.748,-40.6651423802257
3.754,-41.6912663013244
3.76,-42.8275326857722
3.766,-44.101897434003
3.772,-45.5542474599292
3.778,-47.2436799688474
3.784,-49.2611415350193
3.79,-51.7487352401293
3.796,-54.8965226062425
3.802,-58.5410455223048
3.808,-59.7624234280087
3.814,-56.773982015292
3.82,-53.5335525589362
3.826,-50.9971239070588
3.832,-49.0118668085628
3.838,-47.4086617387876
3.844,-46.0765786208008
3.85,-44.9443715960561
3.856,-43.9647157211832
3.862,-43.1049165465221
3.868,-42.3415633056124
3.874,-41.6573647904562
3.88,-41.0392059311737
3.886,-40.4769097392456
3.892,-39.9624219024736
3.898,-39.4892575882363
3.904,-39.0521161716018
3.91,-38.646606629427
3.916,-38.2690477623519
3.922,-37.9163201931352
3.928,-37.5857549451418
3.934,-37.275048359287
3.94,-36.9821963085449
3.946,-36.7054427829057
3.952,-36.4432393420879
3.958,-36.1942129113612
3.964,-35.9571400792972
3.97,-35.7309265419255
3.976,-35.5145906884928
3.982,-35.3072505813456
3.988,-35.1081137742431
3.994,-34.9164695585682
4,-34.7316833383804
4.006,-34.5531929218826
4.012,-34.3805065845957
4.018,-34.2132028121179
4.024,-34.0509316698481
4.03,-33.8934177740488
4.036,-33.7404648522917
4.042,-33.5919618794591
4.048,-33.4478907544049
4.054,-33.3083354369956
4.06,-33.1734923890372
4.066,-33.043682048029
4.072,-32.9193609020332
4.078,-32.8011335208178
4.084,-32.6897636304134
4.09,-32.5861830007416
4.096,-32.4914965676717
4.102,-32.4069818697347
4.108,-32.3340806090488
4.114,-32.2743800370819
4.12,-32.2295820337548
4.126,-32.2014583155622
4.132,-32.191791272607
4.138,-32.2023015214503
4.144,-32.2345652713082
4.15,-32.2899267733218
4.156,-32.3694130366422
4.162,-32.4736591454521
4.168,-32.6028524459158
4.174,-32.7567023630026
4.18,-32.9344397797462
4.186,-33.1348462644856
4.192,-33.3563097135897
4.198,-33.5968999593623
4.204,-33.8544561323118
4.21,-34.1266772594763
4.216,-34.411208554181
4.222,-34.7057176830938
4.228,-35.0079574753644
4.234,-35.3158136224136
4.24,-35.6273376119648
4.246,-35.9407663185733
4.252,-36.2545303412988
4.258,-36.5672534251364
4.264,-36.87774524666
4.27,-37.1849896036629
4.276,-37.48812971938
4.282,-37.7864520223392
4.288,-38.0793694352964
4.294,-38.3664049229004
4.3,-38.6471758153594
4.306,-38.921379243378
4.312,-39.1887788823164
4.318,-39.449193103393
4.324,-39.7024845591173
4.33,-39.9485511820465
4.336,-40.1873185445077
4.342,-40.4187335073754
4.348,-40.6427590746382
4.354,-40.8593703645348
4.36,-41.0685516054064
4.366,-41.270294063624
4.372,-41.4645948109724
4.378,-41.6514562390368
4.384,-41.830886228078
4.39,-42.0028988774372
4.396,-42.1675157037401
4.402,-42.3247672122474
4.408,-42.4746947459451
4.414,-42.6173525167438
4.42,-42.7528097238843
4.426,-42.8811526667278
4.432,-43.0024867628851
4.438,-43.1169383883763
4.444,-43.2246564643327
4.45,-43.3258137246412
4.456,-43.4206076106881
4.462,-43.5092607526597
4.468,-43.5920210112028
4.474,-43.669161068071
4.48,-43.7409775690416
4.486,-43.8077898362449
4.492,-43.8699381795247
4.498,-43.9277818470445
4.504,-43.9816966637267
4.51,-44.0320724120428
4.516,-44.0793100131277
4.522,-44.1238185672661
4.528,-44.1660123117182
4.534,-44.2063075509426
4.54,-44.2451196099034
4.546,-44.2828598557295
4.552,-44.3199328268998
4.558,-44.3567335027266
4.564,-44.3936447394938
4.57,-44.4310348934084
4.576,-44.4692556447228
4.582,-44.5086400320762
4.588,-44.5495007013451
4.594,-44.5921283690941
4.6,-44.6367904970568
4.606,-44.6837301709135
4.612,-44.7331651739238
4.618,-44.7852872436768
4.624,-44.840261498298
4.63,-44.8982260168868
4.636,-44.9592915577393
4.642,-45.0235413970455
4.648,-45.0910312702588
4.654,-45.1617893982483
4.66,-45.2358165806937
4.666,-45.3130863400122
4.672,-45.3935451004506
4.678,-45.4771123888737
4.684,-45.5636810462542
4.69,-45.6531174419526
4.696,-45.7452616865585
4.702,-45.8399278433633
4.708,-45.936904143404
4.714,-46.0359532144313
4.72,-46.1368123400163
4.726,-46.2391937712306
4.732,-46.3427851197331
4.738,-46.4472498674819
4.744,-46.5522280343726
4.75,-46.6573370505523
4.756,-46.7621728845343
4.762,-46.8663114810663
4.768,-46.9693105634153
4.774,-47.0707118527324
4.78,-47.170043751866
4.786,-47.2668245318392
4.792,-47.3605660458067
4.798,-47.4507779774252
4.804,-47.5369726083352
4.81,-47.618670063327
4.816,-47.6954039627182
4.822,-47.7667273809478
4.828,-47.8322189803066
4.834,-47.8914891613889
4.84,-47.9441860497735
4.846,-47.9900011241143
4.852,-48.0286742864193
4.858,-48.0599981823638
4.864,-48.08382159869
4.87,-48.1000517956464
4.876,-48.1086556734576
4.882,-48.1096597203409
4.888,-48.1031487421539
4.894,-48.0892634264641
4.9,-48.0681968427597
4.906,-48.0401900221671
4.912,-48.0055267917271
4.918,-47.9645280583287
4.924,-47.9175457453299
4.93,-47.8649565812744
4.936,-47.8071559264459
4.942,-47.744551801421
4.948,-47.6775592547536
4.954,-47.6065951769605
4.96,-47.5320736373924
4.966,-47.4544017912938
4.972,-47.3739763778631
4.978,-47.2911808073659
4.984,-47.2063828168634
4.99,-47.1199326599766
4.996,-47.0321617861382
5.002,-46.9433819585555
5.008,-46.8538847570943
5.014,-46.7639414118853
5.02,-46.6738029150628
5.026,-46.5837003611241
5.032,-46.4938454704451
5.038,-46.4044312551116
5.044,-46.3156327910906
5.05,-46.2276080656219
5.056,-46.1404988733784
5.062,-46.0544317393017
5.068,-45.9695188499813
5.074,-45.8858589789943
5.08,-45.8035383947228
5.086,-45.7226317418495
5.092,-45.6432028900113
5.098,-45.5653057450005
5.104,-45.4889850194834
5.11,-45.4142769614924
5.116,-45.34121003998
5.122,-45.2698055875357
5.128,-45.200078400996
5.134,-45.132037301149
5.14,-45.0656856530829
5.146,-45.0010218489649
5.152,-44.938039755193
5.158,-44.8767291259512
5.164,-44.8170759852313
5.17,-44.7590629793788
5.176,-44.7026697021811
5.182,-44.6478729944544
5.188,-44.5946472200095
5.194,-44.5429645197851
5.2,-44.4927950458429
5.206,-44.4441071768194
5.212,-44.3968677163265
5.218,-44.3510420756954
5.224,-44.3065944423588
5.23,-44.263487935074
5.236,-44.221684747097
5.242,-44.1811462783331
5.248,-44.1418332574098
5.254,-44.1037058545384
5.26,-44.0667237859622
5.266,-44.0308464107215
5.272,-43.9960328204036
5.278,-43.9622419224895
5.284,-43.9294325178527
5.29,-43.8975633729212
5.296,-43.866593286962
5.302,-43.8364811549113
5.308,-43.8071860261284
5.314,-43.7786671594207
5.32,-43.7508840746505
5.326,-43.7237966012047
5.332,-43.6973649235796
5.338,-43.6715496243081
5.344,-43.6463117244303
5.35,-43.6216127216877
5.356,-43.597414626601
5.362,-43.5736799965707
5.368,-43.5503719681233
5.374,-43.5274542874105
5.38,-43.5048913390534
5.386,-43.4826481734091
5.392,-43.4606905323273
5.398,-43.4389848734511
5.404,-43.4174983931072
5.41,-43.3961990478216
5.416,-43.3750555744878
5.422,-43.3540375092096
5.428,-43.3331152048312
5.434,-43.3122598471643
5.44,-43.2914434699173
5.446,-43.2706389683257
5.452,-43.2498201114833
5.458,-43.2289615533672
5.464,-43.2080388425536
5.47,-43.1870284306143
5.476,-43.1659076791883
5.482,-43.144654865722
5.488,-43.1232491878705
5.494,-43.1016707665572
5.5,-43.0799006476868
5.506,-43.0754578169828
5.512,-43.072577901862
5.518,-43.0712282835662
5.524,-43.0713754747554
5.53,-43.0729852137302
5.536,-43.0760225581774
5.542,-43.0804519779659
5.548,-43.086237446555
5.554,-43.0933425306084
5.56,-43.1017304774462
5.566,-43.1113643000033
5.572,-43.1222068590019
5.578,-43.1342209420823
5.584,-43.147369339677
5.59,-43.1616149174476
5.596,-43.1769206851419
5.602,-43.193249861763
5.608,-43.2105659369746
5.614,-43.2288327286981
5.62,-43.2480144368862
5.626,-43.2680756934845
5.632,-43.2889816086159
5.638,-43.3106978130455
5.644,-43.3331904970033
5.65,-43.3564264454589
5.656,-43.3803730699572
5.662,-43.4049984371371
5.668,-43.4302712940658
5.674,-43.4561610905302
5.68,-43.482637998432
5.686,-43.509672928441
5.692,-43.5372375440617
5.698,-43.5653042732711
5.704,-43.593846317887
5.71,-43.6228376608249
5.716,-43.6522530713992
5.722,-43.6820681088228
5.728,-43.7122591240559
5.734,-43.7428032601503
5.74,-43.7736784512309
5.746,-43.8048634202512
5.752,-43.836337675655
5.758,-43.8680815070694
5.764,-43.9000759801497
5.77,-43.9323029306895
5.776,-43.964744958105
5.782,-43.9973854183954
5.788,-44.0302084166747
5.794,-44.063198799366
5.8,-44.0963421461425
5.806,-44.1296247616943
5.812,-44.1630336673936
5.818,-44.196556592928
5.824,-44.2301819679641
5.83,-44.2638989138994
5.836,-44.2976972357588
5.842,-44.3315674142818
5.848,-44.3655005982487
5.854,-44.3994885970868
5.86,-44.4335238737936
5.866,-44.4675995382136
5.872,-44.5017093406977
5.878,-44.5358476661774
5.884,-44.5700095286761
5.89,-44.6041905662836
5.896,-44.6383870366139
5.902,-44.6725958127652
5.908,-44.7068143798004
5.914,-44.741040831762
5.92,-44.7752738692365
5.926,-44.8095127974799
5.932,-44.8437575251165
5.938,-44.878008563419
5.944,-44.9122670261813
5.95,-44.94653463019
5.956,-44.9808136963031
5.962,-45.0151071511419
5.968,-45.0494185294022
5.974,-45.0837519767902
5.98,-45.1181122535881
5.986,-45.1525047388544
5.992,-45.1869354352623
5.998,-45.2214109745822
6.004,-45.2559386238105
6.01,-45.2905262919489
6.016,-45.3251825374399
6.022,-45.3599165762599
6.028,-45.3947382906758
6.034,-45.4296582386682
6.04,-45.4646876640258
6.046,-45.4998385071166
6.052,-45.5351234163378
6.058,-45.570555760254
