"Freq [GHz]","dB(St(1,7)) []"
1,-16.5899340967614
1.006,-16.8046738439887
1.012,-17.0106940810767
1.018,-17.2066515739159
1.024,-17.3914492368927
1.03,-17.5642479558136
1.036,-17.7244673919248
1.042,-17.8717769969286
1.048,-18.0060789306222
1.054,-18.127484831279
1.06,-18.236288455147
1.066,-18.3329361047646
1.072,-18.4179965467809
1.078,-18.4921318232932
1.084,-18.5560700289343
1.09,-18.6105807949965
1.096,-18.6564539186091
1.102,-18.6944813165194
1.108,-18.7254422776146
1.114,-18.7500918370127
1.12,-18.7691519933127
1.126,-18.7833054322899
1.132,-18.7931913964314
1.138,-18.7994033416186
1.144,-18.8024880420922
1.15,-18.8029458358957
1.156,-18.8012317399807
1.162,-18.797757203076
1.168,-18.7928923024902
1.174,-18.7869682264082
1.18,-18.7802799149059
1.186,-18.7730887603294
1.192,-18.7656252907196
1.198,-18.7580917786492
1.204,-18.7506647322365
1.21,-18.7434972350724
1.216,-18.7367211066591
1.222,-18.7304488527618
1.228,-18.7247753608604
1.234,-18.7197792572007
1.24,-18.7155237457357
1.246,-18.7120565000204
1.252,-18.7094074652872
1.258,-18.7075810529464
1.264,-18.7065294001974
1.27,-18.7060364984702
1.276,-18.7048019447966
1.282,-18.7439351424406
1.288,-18.7182602601417
1.294,-18.7206809385951
1.3,-18.7251371920182
1.306,-18.7308371909441
1.312,-18.7375974683254
1.318,-18.7453442644554
1.324,-18.7540351531512
1.33,-18.7636387776859
1.336,-18.7741280872579
1.342,-18.7854777183005
1.348,-18.7976628956113
1.354,-18.8106589622877
1.36,-18.8244411921294
1.366,-18.8389847355952
1.372,-18.8542646302066
1.378,-18.8702558414332
1.384,-18.8869333166705
1.39,-18.9042720431867
1.396,-18.9222471052201
1.402,-18.9408337377366
1.408,-18.9600073756412
1.414,-18.9797436979628
1.42,-19.0000186669396
1.426,-19.0208085621601
1.432,-19.0420900100377
1.438,-19.0638400089557
1.444,-19.0860359504449
1.45,-19.1086556367546
1.456,-19.1316772951679
1.462,-19.1550795893929
1.468,-19.1788416283396
1.474,-19.2029429725685
1.48,-19.2273636386732
1.486,-19.2520841018361
1.492,-19.2770852967749
1.498,-19.3023486172768
1.504,-19.3278559144975
1.51,-19.3535894941857
1.516,-19.3795321129765
1.522,-19.4056669738837
1.528,-19.4319777211061
1.534,-19.4584484342512
1.54,-19.4850636220695
1.546,-19.5118082157811
1.552,-19.5386675620684
1.558,-19.5656274157997
1.564,-19.5926739325416
1.57,-19.619793660911
1.576,-19.6469735348122
1.582,-19.6742008655982
1.588,-19.7014633341907
1.594,-19.7287489831899
1.6,-19.7560462089998
1.606,-19.7833437539916
1.612,-19.8106306987264
1.618,-19.8378964542509
1.624,-19.8651307544844
1.63,-19.8923236487052
1.636,-19.9194654941495
1.642,-19.9465469487284
1.648,-19.9735589638714
1.654,-20.0004927775009
1.66,-20.027339907141
1.666,-20.0540921431643
1.672,-20.080741542178
1.678,-20.1072804205501
1.684,-20.1337013480758
1.69,-20.1599971417846
1.696,-20.1861608598859
1.702,-20.2121857958513
1.708,-20.2380654726337
1.714,-20.2637936370183
1.72,-20.2893642541053
1.726,-20.3147715019188
1.732,-20.340009766142
1.738,-20.3650736349729
1.744,-20.3899578940988
1.75,-20.4146575217847
1.756,-20.4391676840747
1.762,-20.4634837300991
1.768,-20.4876011874883
1.774,-20.5115157578857
1.78,-20.5352233125589
1.786,-20.5587198881051
1.792,-20.5820016822468
1.798,-20.605065049715
1.804,-20.6279064982163
1.81,-20.650522684482
1.816,-20.6729104103938
1.822,-20.6950666191853
1.828,-20.7169883917157
1.834,-20.7386729428122
1.84,-20.7601176176802
1.846,-20.7813198883763
1.852,-20.8022773503441
1.858,-20.8229877190088
1.864,-20.8434488264291
1.87,-20.8636586180043
1.876,-20.8836151492336
1.882,-20.9033165825271
1.888,-20.9227611840664
1.894,-20.9419473207113
1.9,-20.9608734569536
1.906,-20.9795381519147
1.912,-20.9979400563861
1.918,-21.0160779099117
1.924,-21.0339505379094
1.93,-21.051556848833
1.936,-21.0688958313711
1.942,-21.0859665516833
1.948,-21.1027681506719
1.954,-21.1192998412891
1.96,-21.135560905878
1.966,-21.1515506935468
1.972,-21.1672686175765
1.978,-21.1827141528593
1.984,-21.1978868333696
1.99,-21.2127862496653
1.996,-21.2274120464187
2.002,-21.2417639199787
2.008,-21.2558416159611
2.014,-21.2696449268683
2.02,-21.2831736897376
2.026,-21.2964277838178
2.032,-21.3094071282737
2.038,-21.322111679918
2.044,-21.3345414309711
2.05,-21.3466964068473
2.056,-21.358576663969
2.062,-21.3701822876061
2.068,-21.3815133897437
2.074,-21.3925701069748
2.08,-21.4033525984193
2.086,-21.4138610436701
2.092,-21.4240956407636
2.098,-21.4340566041772
2.104,-21.4437441628512
2.11,-21.4531585582377
2.116,-21.462300042373
2.122,-21.4711688759769
2.128,-21.4797653265759
2.134,-21.4880896666523
2.14,-21.4961421718171
2.146,-21.5039231190088
2.152,-21.5114327847161
2.158,-21.5186714432252
2.164,-21.5256393648914
2.17,-21.5323368144354
2.176,-21.5387640492634
2.182,-21.5449213178109
2.188,-21.5508088579113
2.194,-21.5564268951871
2.2,-21.5617756414657
2.206,-21.5668552932184
2.212,-21.5716660300221
2.218,-21.5762080130458
2.224,-21.5804813835584
2.23,-21.5844862614609
2.236,-21.5882227438407
2.242,-21.591690903549
2.248,-21.5948907878007
2.254,-21.5978224167967
2.26,-21.6004857823692
2.266,-21.6028808466481
2.272,-21.605007540751
2.278,-21.6068657634945
2.284,-21.6084553801273
2.29,-21.6097762210859
2.296,-21.610828080772
2.302,-21.6116107163513
2.308,-21.6121238465743
2.314,-21.6123671506192
2.32,-21.6123402669559
2.326,-21.6120427922321
2.332,-21.6114742801807
2.338,-21.6106342405498
2.344,-21.6095221380531
2.35,-21.6081373913434
2.356,-21.6064793720074
2.362,-21.6045474035825
2.368,-21.6023407605955
2.374,-21.5998586676243
2.38,-21.5971002983814
2.386,-21.5940647748198
2.392,-21.5907511662624
2.398,-21.5871584885541
2.404,-21.5832857032367
2.41,-21.5791317167485
2.416,-21.5746953796467
2.422,-21.5699754858548
2.428,-21.5649707719345
2.434,-21.5596799163824
2.44,-21.5541015389521
2.446,-21.5482342000033
2.452,-21.5420763998759
2.458,-21.5356265782922
2.464,-21.5288831137864
2.47,-21.5218443231623
2.476,-21.5145084609798
2.482,-21.5068737190712
2.488,-21.4989382260876
2.494,-21.4907000470767
2.5,-21.4821571830918
2.506,-21.4733075708346
2.512,-21.4641490823305
2.518,-21.4546795246389
2.524,-21.4448966395995
2.53,-21.4347981036144
2.536,-21.4243815274677
2.542,-21.4136444561848
2.548,-21.4025843689302
2.554,-21.3911986789472
2.56,-21.3794847335391
2.566,-21.3674398140947
2.572,-21.3550611361576
2.578,-21.3423458495426
2.584,-21.3292910384985
2.59,-21.3158937219207
2.596,-21.3021508536141
2.602,-21.2880593226074
2.608,-21.2736159535213
2.614,-21.2588175069919
2.62,-21.2436606801505
2.626,-21.228142107162
2.632,-21.2122583598235
2.638,-21.1960059482245
2.644,-21.1793813214717
2.65,-21.1623808684782
2.656,-21.1450009188211
2.662,-21.1272377436685
2.668,-21.1090875567774
2.674,-21.0905465155656
2.68,-21.0716107222592
2.686,-21.0522762251173
2.692,-21.0325390197368
2.698,-21.0123950504396
2.704,-20.9918402117438
2.71,-20.9708703499214
2.716,-20.9494812646453
2.722,-20.9276687107279
2.728,-20.905428399953
2.734,-20.8827560030046
2.74,-20.8596471514948
2.746,-20.8360974400929
2.752,-20.8121024287592
2.758,-20.7876576450861
2.764,-20.7627585867489
2.77,-20.7374007240696
2.776,-20.7115795026973
2.782,-20.6852903464063
2.788,-20.6585286600184
2.794,-20.6312898324488
2.8,-20.6035692398827
2.806,-20.5753622490833
2.812,-20.5466642208364
2.818,-20.5174705135353
2.824,-20.4877764869084
2.83,-20.4575775058965
2.836,-20.4268689446806
2.842,-20.3956461908674
2.848,-20.3639046498354
2.854,-20.3316397492475
2.86,-20.2988469437341
2.866,-20.2655217197524
2.872,-20.2316596006279
2.878,-20.1972561517831
2.884,-20.1623069861589
2.89,-20.1268077698369
2.896,-20.0907542278669
2.902,-20.0541421503086
2.908,-20.0169673984924
2.914,-19.9792259115093
2.92,-19.9409137129367
2.926,-19.9020269178079
2.932,-19.8625617398352
2.938,-19.8225144988953
2.944,-19.7818816287865
2.95,-19.7406596852682
2.956,-19.6988453543926
2.962,-19.6564354611406
2.968,-19.6134269783726
2.974,-19.5698170361064
2.98,-19.5256029311362
2.986,-19.4807821370026
2.992,-19.4353523143317
2.998,-19.389311321553
3.004,-19.3426572260142
3.01,-19.2953883155062
3.016,-19.2475031102153
3.022,-19.1990003751176
3.028,-19.1498791328333
3.034,-19.1001386769575
3.04,-19.0497785858859
3.046,-18.9987987371512
3.052,-18.9471993222914
3.058,-18.8949808622658
3.064,-18.8421442234384
3.07,-18.7886906341472
3.076,-18.7346217018779
3.082,-18.67993943106
3.088,-18.6246462415032
3.094,-18.5687449874927
3.1,-18.5122389775588
3.106,-18.4551319949372
3.112,-18.3974283187347
3.118,-18.3391327458146
3.124,-18.280250613412
3.13,-18.2207878224896
3.136,-18.1607508618415
3.142,-18.1001468329491
3.148,-18.0389834755916
3.154,-17.9772691942073
3.16,-17.9150130850013
3.166,-17.8522249637878
3.172,-17.7889153945503
3.178,-17.7250957186987
3.184,-17.6607780849943
3.19,-17.5959754801058
3.196,-17.5307017597531
3.202,-17.4649716803859
3.208,-17.3988009313331
3.214,-17.3322061673499
3.22,-17.2652050414781
3.226,-17.197816238119
3.232,-17.1300595062095
3.238,-17.0619556923733
3.244,-16.9935267739044
3.25,-16.9247958914237
3.256,-16.8560718336932
3.262,-16.7872283289345
3.268,-16.7182991820292
3.274,-16.6493202810908
3.28,-16.5803296761798
3.286,-16.5113676572739
3.292,-16.4424768309284
3.298,-16.3737021949854
3.304,-16.305091210621
3.31,-16.236693870936
3.316,-16.1685627652159
3.322,-16.1007531378996
3.328,-16.0333229412107
3.334,-15.9663328803157
3.34,-15.8998464497896
3.346,-15.8339299600832
3.352,-15.7686525526071
3.358,-15.7040862019769
3.364,-15.6403057038966
3.37,-15.5773886471106
3.376,-15.5154153678161
3.382,-15.4544688849136
3.388,-15.3946348144769
3.394,-15.3360012618599
3.4,-15.278658689919
3.406,-15.2226997619281
3.412,-15.1682191578988
3.418,-15.1153133631964
3.424,-15.0640804285609
3.43,-15.0146197009111
3.436,-14.9670315246224
3.442,-14.9214169133283
3.448,-14.8778771927027
3.454,-14.8365136151245
3.46,-14.7974269476107
3.466,-14.7607170349175
3.472,-14.7264823402404
3.478,-14.6948194664911
3.484,-14.6658226616673
3.49,-14.6395833123561
3.496,-14.6161894299037
3.502,-14.5957251342268
3.508,-14.5782701406183
3.514,-14.5638992551967
3.52,-14.5526818848509
3.526,-14.5446815676214
3.532,-14.5399555294346
3.538,-14.5385542729481
3.544,-14.5405212039863
3.55,-14.5458923006287
3.556,-14.554695829476
3.562,-14.5669521129726
3.568,-14.5826733509087
3.574,-14.6018634983962
3.58,-14.6245182017217
3.586,-14.6506247925481
3.592,-14.6801623400003
3.598,-14.7131017592454
3.604,-14.7494059742904
3.61,-14.7890301319032
3.616,-14.8319218628214
3.622,-14.8780215857773
3.628,-14.9272628493493
3.634,-14.9795727062464
3.64,-15.0348721143678
3.646,-15.0930763588343
3.652,-15.1540954891735
3.658,-15.2178347659377
3.664,-15.2841951112388
3.67,-15.3530735579825
3.676,-15.4243636929547
3.682,-15.497956089352
3.688,-15.5737387248269
3.694,-15.6515973816273
3.7,-15.7314160259356
3.706,-15.8130771640366
3.712,-15.8964621734567
3.718,-15.9814516077109
3.724,-16.0679254737536
3.73,-16.1557634816605
3.736,-16.2448452664507
3.742,-16.3350505823087
3.748,-16.4262594697601
3.754,-16.5183523966189
3.76,-16.6112103737363
3.766,-16.7047150467615
3.772,-16.7987487652666
3.778,-16.8931946306982
3.784,-16.9879365247059
3.79,-17.0828591194562
3.796,-17.1778478715902
3.802,-17.2727890015135
3.808,-17.3675694597356
3.814,-17.4620768819978
3.82,-17.5561995349606
3.826,-17.6498262542516
3.832,-17.7428463767311
3.838,-17.8351496688956
3.844,-17.9266262534363
3.85,-18.0171665360934
3.856,-18.1066611351073
3.862,-18.1950008157778
3.868,-18.2820764328996
3.874,-18.3677788841674
3.88,-18.4519990780379
3.886,-18.5346279200214
3.892,-18.6155563219537
3.898,-18.6946752394993
3.904,-18.7718757439738
3.91,-18.8470491355598
3.916,-18.9200871061728
3.922,-18.9908819616166
3.928,-19.0593269143058
3.934,-19.1253164597475
3.94,-19.188746852219
3.946,-19.2495166976879
3.952,-19.3075276850544
3.958,-19.3626854802897
3.964,-19.4149008120609
3.97,-19.4640907819983
3.976,-19.5101804379133
3.982,-19.5531046540169
3.988,-19.5928103684737
3.994,-19.6292592353737
4,-19.6624307552095
4.006,-19.6923259548946
4.012,-19.7189716947323
4.018,-19.7424256847621
4.024,-19.7627822954327
4.03,-19.7801792459494
4.036,-19.7948052456831
4.042,-19.8069086466792
4.048,-19.8168071346478
4.054,-19.8248984368702
4.06,-19.8316719522681
4.066,-19.8377211046644
4.072,-19.8437560780809
4.078,-19.8506164067755
4.084,-19.859282659656
4.09,-19.8708861817855
4.096,-19.886715548254
4.102,-19.9082180764399
4.108,-19.9369944807529
4.114,-19.9747846120967
4.12,-20.0234422970751
4.126,-20.0848976851269
4.132,-20.161106319085
4.138,-20.2539854116348
4.144,-20.3653394898606
4.15,-20.496779485032
4.156,-20.6496411766229
4.162,-20.8249102285007
4.168,-21.0231614580688
4.174,-21.2445191674746
4.18,-21.4886433161635
4.186,-21.7547433267073
4.192,-22.0416179622746
4.198,-22.3477166761528
4.204,-22.6712156978282
4.21,-23.0101012110196
4.216,-23.3622522970344
4.222,-23.7255175896599
4.228,-24.0977813975342
4.234,-24.4770169724669
4.24,-24.8613263093253
4.246,-25.2489671665629
4.252,-25.6383688405007
4.258,-26.0281386511315
4.264,-26.417061193987
4.27,-26.8040922872038
4.276,-27.1883492911814
4.282,-27.5690991745681
4.288,-27.9457453954682
4.294,-28.3178143906689
4.3,-28.6849422325334
4.306,-29.0468618265425
4.312,-29.4033908795753
4.318,-29.7544207639655
4.324,-30.099906328209
4.33,-30.439856655089
4.336,-30.7743267359196
4.342,-31.1034100105927
4.348,-31.4272317132065
4.354,-31.745942959268
4.36,-32.059715510603
4.366,-32.3687371566036
4.372,-32.6732076542399
4.378,-32.9733351736306
4.384,-33.2693332004768
4.39,-33.5614178510318
4.396,-33.8498055593788
4.402,-34.13471110055
4.408,-34.4163459164249
4.414,-34.6949167144245
4.42,-34.9706243117781
4.426,-35.2436627006325
4.432,-35.514218311524
4.438,-35.7824694547659
4.444,-36.0485859211628
4.45,-36.3127287251441
4.456,-36.5750499749505
4.462,-36.8356928559122
4.468,-37.0947917141368
4.474,-37.3524722290907
4.48,-37.608851664617
4.486,-37.8640391888819
4.492,-38.1181362546065
4.498,-38.3712370316968
4.504,-38.6234288850663
4.51,-38.8747928910325
4.516,-39.12540438618
4.522,-39.3753335430122
4.528,-39.6246459670714
4.534,-39.8734033104877
4.54,-40.1216638971286
4.546,-40.3694833546578
4.552,-40.6169152488772
4.558,-40.8640117157148
4.564,-41.1108240861252
4.57,-41.3574034989946
4.576,-41.6038014968575
4.582,-41.8500705988475
4.588,-42.0962648447858
4.594,-42.34244030365
4.6,-42.5886555388268
4.606,-42.8349720215168
4.612,-43.08145448238
4.618,-43.3281711899584
4.624,-43.5751941425316
4.63,-43.8225991578055
4.636,-44.0704658421491
4.642,-44.3188774179236
4.648,-44.5679203837354
4.654,-44.8176839781481
4.66,-45.0682594124803
4.666,-45.319738832789
4.672,-45.5722139650499
4.678,-45.8257743910025
4.684,-46.0805053953606
4.69,-46.3364853184551
4.696,-46.5937823424486
4.702,-46.8524506348768
4.708,-47.1125257716189
4.714,-47.3740193640947
4.72,-47.636912824715
4.726,-47.901150223107
4.732,-48.1666302168428
4.738,-48.4331970882882
4.744,-48.7006309881329
4.75,-48.9686375804569
4.756,-49.2368374072015
4.762,-49.504755442887
4.768,-49.7718114905307
4.774,-50.0373122678497
4.78,-50.3004462307773
4.786,-50.5602823494719
4.792,-50.8157741481499
4.798,-51.0657702910159
4.804,-51.3090327842032
4.81,-51.5442634170577
4.816,-51.7701383595882
4.822,-51.9853498876012
4.828,-52.1886531096705
4.834,-52.3789144798129
4.84,-52.5551580130347
4.846,-52.7166047095785
4.852,-52.8627009213959
4.858,-52.9931323295316
4.864,-53.1078217531094
4.87,-53.2069109320994
4.876,-53.2907283688585
4.882,-53.3597469212369
4.888,-53.4145358442666
4.894,-53.4557122606098
4.9,-53.4838966467065
4.906,-53.4996760207448
4.912,-53.5035773376947
4.918,-53.4960523566052
4.924,-53.4774741147133
4.93,-53.4481442200371
4.936,-53.4083094925275
4.942,-53.3581860314222
4.948,-53.2979885278482
4.954,-53.2279625371226
4.96,-53.1484174413111
4.966,-53.0597579465212
4.972,-52.9625121563915
4.978,-52.857354532002
4.984,-52.7451223759637
4.99,-52.6268248471339
4.996,-52.5036439001682
5.002,-52.3769269275427
5.008,-52.2481712408848
5.014,-52.1190008516664
5.02,-51.9911362973147
5.026,-51.8663585157082
5.032,-51.746468011581
5.038,-51.6332407923635
5.044,-51.5283827775561
5.05,-51.4334845877772
5.056,-51.3499787631241
5.062,-51.2791015001096
5.068,-51.2218608868289
5.074,-51.1790133263752
5.08,-51.1510493659551
5.086,-51.138189526258
5.092,-51.1403900185963
5.098,-51.1573575344429
5.104,-51.1885716850723
5.11,-51.2333132336793
5.116,-51.2906960426999
5.122,-51.3597006612097
5.128,-51.4392076723288
5.134,-51.528029255336
5.14,-51.624937827916
5.146,-51.7286910596332
5.152,-51.8380529393472
5.158,-51.9518109045708
5.164,-52.0687892842322
5.17,-52.1878594664742
5.176,-52.3079472883022
5.182,-52.4280381678243
5.188,-52.5471804781296
5.194,-52.6644876095197
5.2,-52.7791390967638
5.206,-52.8903811106
5.212,-52.9975265354569
5.218,-53.099954783686
5.224,-53.1971114338391
5.23,-53.288507728713
5.236,-53.3737199288752
5.242,-53.4523884892717
5.248,-53.5242170097922
5.254,-53.5889709043017
5.26,-53.6464757353002
5.266,-53.6966151713331
5.272,-53.7393285396912
5.278,-53.7746079658078
5.284,-53.8024951111152
5.29,-53.8230775411152
5.296,-53.8364847734641
5.302,-53.8428840706947
5.308,-53.8424760529502
5.314,-53.8354902123504
5.32,-53.8221804123015
5.326,-53.8028204525381
5.332,-53.7776997745198
5.338,-53.7471193728046
5.344,-53.711387967021
5.35,-53.6708184769698
5.356,-53.6257248309801
5.362,-53.5764191256396
5.368,-53.5232091439356
5.374,-53.4663962290879
5.38,-53.4062735031436
5.386,-53.3431244128469
5.392,-53.2772215803722
5.398,-53.2088259331219
5.404,-53.1381860847755
5.41,-53.06553793895
5.416,-52.9911044869748
5.422,-52.9150957721985
5.428,-52.837708994727
5.434,-52.7591287323843
5.44,-52.6795272558122
5.446,-52.5990649178906
5.452,-52.5178905999416
5.458,-52.4361421994134
5.464,-52.3539471458679
5.47,-52.2714229340828
5.476,-52.1886776648909
5.482,-52.1058105860224
5.488,-52.022912626671
5.494,-51.9400669207833
5.5,-51.8573493151838
5.506,-51.8377415634935
5.512,-51.8191287037811
5.518,-51.80152397643
5.524,-51.7849406356595
5.53,-51.7693919264695
5.536,-51.7548910608287
5.542,-51.7414511932037
5.548,-51.7290853955106
5.554,-51.7178066315976
5.56,-51.7076277313526
5.566,-51.698561364567
5.572,-51.6906200146671
5.578,-51.6838159524563
5.584,-51.6781612099911
5.59,-51.6736675547492
5.596,-51.6703464642234
5.602,-51.6682091011059
5.608,-51.6672662892056
5.614,-51.6675284902622
5.62,-51.6690057818113
5.626,-51.6717078362479
5.632,-51.6756439012538
5.638,-51.6808227817182
5.644,-51.6872528233088
5.65,-51.6949418978241
5.656,-51.7038973904464
5.662,-51.7141261890194
5.668,-51.7256346754498
5.674,-51.7384287193305
5.68,-51.752513673856
5.686,-51.7678943741026
5.692,-51.7845751377094
5.698,-51.8025597680061
5.704,-51.821851559583
5.71,-51.8424533063154
5.716,-51.8643673118152
5.722,-51.8875954022619
5.728,-51.9121389415709
5.734,-51.9379988488111
5.74,-51.9651756177878
5.746,-51.9936693386766
5.752,-52.0234797215944
5.758,-52.0546061219566
5.764,-52.0870475674814
5.77,-52.1208027866697
5.776,-52.1558702385956
5.782,-52.1922481438122
5.788,-52.2299345161951
5.794,-52.2689271955167
5.8,-52.3092238805542
5.806,-52.3508221625256
5.812,-52.3937195586527
5.818,-52.4379135456226
5.824,-52.4834015927771
5.83,-52.5301811947947
5.836,-52.5782499036712
5.842,-52.6276053598237
5.848,-52.6782453220926
5.854,-52.730167696484
5.86,-52.7833705634641
5.866,-52.8378522036223
5.872,-52.89361112156
5.878,-52.9506460678233
5.884,-53.0089560587527
5.89,-53.0685403940732
5.896,-53.1293986721262
5.902,-53.1915308025722
5.908,-53.2549370164652
5.914,-53.3196178735591
5.92,-53.3855742667334
5.926,-53.4528074234172
5.932,-53.5213189038966
5.938,-53.5911105963847
5.944,-53.662184708741
5.95,-53.7345437567048
5.956,-53.8081905485338
5.962,-53.8831281658914
5.968,-53.9593599408562
5.974,-54.0368894288894
5.98,-54.1157203775987
5.986,-54.1958566911075
5.992,-54.2773023898425
5.998,-54.3600615655038
6.004,-54.4441383309952
6.01,-54.5295367650214
6.016,-54.6162608510831
6.022,-54.7043144105175
6.028,-54.7937010292393
6.034,-54.8844239777721
6.04,-54.9764861241226
6.046,-55.0698898390152
6.052,-55.164636892934
