"Freq [GHz]","dB(St(2,2)) []"
1,-7.51670062432067
1.006,-7.66798139784879
1.012,-7.81111389625038
1.018,-7.94225666487262
1.024,-8.06040029195188
1.03,-8.16601421549981
1.036,-8.26019512703203
1.042,-8.34420658624092
1.048,-8.41926117310852
1.054,-8.48643522111852
1.06,-8.54664943974612
1.066,-8.60067896166463
1.072,-8.64917424597749
1.078,-8.69268399670401
1.084,-8.73167625960131
1.09,-8.76655631774806
1.096,-8.79768115074618
1.102,-8.82537071346494
1.108,-8.84991646791456
1.114,-8.87158763629023
1.12,-8.89063561710844
1.126,-8.90729695821351
1.132,-8.92179522718652
1.138,-8.93434206806196
1.144,-8.9451376854587
1.15,-8.95437095369888
1.156,-8.96221930913309
1.162,-8.96884854858962
1.168,-8.97441262559695
1.174,-8.97905350884862
1.18,-8.98290114435434
1.186,-8.98607354387091
1.192,-8.98867700746322
1.198,-8.99080647726977
1.204,-8.99254601257299
1.21,-8.9939693730301
1.216,-8.99514069765799
1.222,-8.99611527294948
1.228,-8.99694039735504
1.234,-8.99765637926405
1.24,-8.99829777305141
1.246,-8.99889512522614
1.252,-8.99947797459076
1.258,-9.00008141204503
1.264,-9.00076495013318
1.27,-9.00168984181142
1.276,-9.00372355647377
1.282,-8.98038880946872
1.288,-8.99922558300846
1.294,-9.00072172464044
1.3,-9.0014977185827
1.306,-9.00205600504858
1.312,-9.0025002777314
1.318,-9.0028602383893
1.324,-9.00314309222965
1.33,-9.00334714310864
1.336,-9.00346654068369
1.342,-9.00349328226121
1.348,-9.00341818590229
1.354,-9.00323142033398
1.36,-9.00292282151181
1.366,-9.0024820964587
1.372,-9.00189896254864
1.378,-9.00116324711965
1.384,-9.00026496116559
1.39,-8.999194355177
1.396,-8.99794196213454
1.402,-8.99649863091376
1.408,-8.99485555231833
1.414,-8.99300427930855
1.42,-8.99093674256896
1.426,-8.98864526227267
1.432,-8.98612255670036
1.438,-8.98336174822803
1.444,-8.98035636709125
1.45,-8.97710035325399
1.456,-8.97358805664859
1.462,-8.96981423600628
1.468,-8.96577405645994
1.474,-8.96146308607173
1.48,-8.95687729141456
1.486,-8.95201303231765
1.492,-8.9468670558714
1.498,-8.94143648977463
1.504,-8.93571883509739
1.51,-8.92971195852458
1.516,-8.92341408413892
1.522,-8.9168237847967
1.528,-8.90993997314495
1.534,-8.90276189232506
1.54,-8.89528910640485
1.546,-8.88752149057786
1.552,-8.87945922116689
1.558,-8.87110276546605
1.564,-8.86245287145415
1.57,-8.8535105574101
1.576,-8.84427710145977
1.582,-8.8347540310816
1.588,-8.82494311259748
1.594,-8.81484634067326
1.6,-8.80446592785256
1.606,-8.79380429414548
1.612,-8.78286405669306
1.618,-8.77164801952668
1.624,-8.76015916344045
1.63,-8.7484006359933
1.636,-8.73637574165627
1.642,-8.72408793211929
1.648,-8.71154079677053
1.654,-8.69873805336025
1.66,-8.6856835388598
1.666,-8.67238120052569
1.672,-8.65883508717708
1.678,-8.6450493406944
1.684,-8.63102818774561
1.69,-8.61677593174574
1.696,-8.60229694505437
1.702,-8.58759566141479
1.708,-8.57267656863797
1.714,-8.55754420153334
1.72,-8.54220313508787
1.726,-8.52665797789412
1.732,-8.51091336582736
1.738,-8.49497395597105
1.744,-8.47884442078959
1.75,-8.46252944254656
1.756,-8.44603370796625
1.762,-8.42936190313574
1.768,-8.41251870864446
1.774,-8.39550879495763
1.78,-8.37833681801984
1.786,-8.36100741508437
1.792,-8.34352520076408
1.798,-8.3258947632988
1.804,-8.30812066103455
1.81,-8.29020741910932
1.816,-8.27215952634005
1.822,-8.25398143230554
1.828,-8.23567754461951
1.834,-8.21725222638839
1.84,-8.19870979384789
1.846,-8.18005451417281
1.852,-8.1612906034541
1.858,-8.1424222248375
1.864,-8.12345348681797
1.87,-8.10438844168397
1.876,-8.08523108410613
1.882,-8.06598534986435
1.888,-8.04665511470787
1.894,-8.02724419334278
1.9,-8.00775633854135
1.906,-7.98819524036791
1.912,-7.96856452551606
1.918,-7.94886775675185
1.924,-7.92910843245803
1.93,-7.90928998627439
1.936,-7.88941578682931
1.942,-7.86948913755782
1.948,-7.84951327660172
1.954,-7.82949137678713
1.96,-7.8094265456753
1.966,-7.78932182568246
1.972,-7.76918019426459
1.978,-7.74900456416337
1.984,-7.72879778370933
1.99,-7.7085626371787
1.996,-7.68830184520039
2.002,-7.66801806520973
2.008,-7.64771389194574
2.014,-7.6273918579887
2.02,-7.60705443433526
2.026,-7.58670403100791
2.032,-7.56634299769632
2.038,-7.54597362442778
2.044,-7.52559814226423
2.05,-7.50521872402362
2.056,-7.484837485023
2.062,-7.46445648384159
2.068,-7.44407772310134
2.074,-7.42370315026327
2.08,-7.40333465843764
2.086,-7.38297408720611
2.092,-7.36262322345429
2.098,-7.34228380221306
2.104,-7.3219575075071
2.11,-7.30164597320929
2.116,-7.28135078389956
2.122,-7.26107347572696
2.128,-7.24081553727377
2.134,-7.22057841042048
2.14,-7.20036349121064
2.146,-7.18017213071456
2.152,-7.16000563589098
2.158,-7.13986527044583
2.164,-7.11975225568718
2.17,-7.09966777137589
2.176,-7.07961295657095
2.182,-7.05958891046913
2.188,-7.03959669323817
2.194,-7.01963732684308
2.2,-6.99971179586498
2.206,-6.97982104831205
2.212,-6.95996599642217
2.218,-6.94014751745682
2.224,-6.920366454486
2.23,-6.90062361716373
2.236,-6.88091978249397
2.242,-6.86125569558657
2.248,-6.84163207040324
2.254,-6.82204959049312
2.26,-6.80250890971795
2.266,-6.7830106529666
2.272,-6.76355541685893
2.278,-6.74414377043883
2.284,-6.72477625585632
2.29,-6.70545338903881
2.296,-6.68617566035131
2.302,-6.6669435352457
2.308,-6.64775745489897
2.314,-6.62861783684052
2.32,-6.60952507556849
2.326,-6.5904795431552
2.332,-6.57148158984173
2.338,-6.55253154462172
2.344,-6.53362971581447
2.35,-6.51477639162745
2.356,-6.49597184070825
2.362,-6.47721631268616
2.368,-6.45851003870346
2.374,-6.43985323193658
2.38,-6.42124608810712
2.386,-6.40268878598319
2.392,-6.38418148787078
2.398,-6.36572434009575
2.404,-6.34731747347629
2.41,-6.32896100378615
2.416,-6.31065503220884
2.422,-6.29239964578285
2.428,-6.27419491783824
2.434,-6.25604090842465
2.44,-6.237937664731
2.446,-6.21988522149703
2.452,-6.20188360141696
2.458,-6.18393281553536
2.464,-6.16603286363559
2.47,-6.14818373462083
2.476,-6.13038540688816
2.482,-6.11263784869571
2.488,-6.09494101852321
2.494,-6.07729486542615
2.5,-6.05969932938382
2.506,-6.04215434164139
2.512,-6.02465982504641
2.518,-6.00721569437986
2.524,-5.98982185668206
2.53,-5.97247821157375
2.536,-5.9551846515725
2.542,-5.93794106240489
2.548,-5.92074732331455
2.554,-5.90360330736653
2.56,-5.88650888174822
2.566,-5.86946390806706
2.572,-5.85246824264555
2.578,-5.83552173681365
2.584,-5.81862423719912
2.59,-5.80177558601598
2.596,-5.78497562135156
2.602,-5.76822417745244
2.608,-5.75152108500976
2.614,-5.73486617144408
2.62,-5.71825926119056
2.626,-5.70170017598448
2.632,-5.68518873514787
2.638,-5.6687247558775
2.644,-5.65230805353487
2.65,-5.63593844193854
2.656,-5.61961573365949
2.662,-5.60333974031986
2.668,-5.58711027289588
2.674,-5.57092714202537
2.68,-5.55479015832054
2.686,-5.5386991326867
2.692,-5.52265387664768
2.698,-5.50665420267847
2.704,-5.49069992454607
2.71,-5.47479085765913
2.716,-5.45892681942741
2.722,-5.44310762963178
2.728,-5.42733311080582
2.734,-5.41160308862988
2.74,-5.3959173923387
2.746,-5.38027585514368
2.752,-5.36467831467093
2.758,-5.34912461341625
2.764,-5.33361459921851
2.77,-5.31814812575247
2.776,-5.30272505304287
2.782,-5.28734524800087
2.788,-5.27200858498488
2.794,-5.25671494638704
2.8,-5.24146422324756
2.806,-5.22625631589846
2.812,-5.21109113463901
2.818,-5.19596860044481
2.824,-5.18088864571288
2.83,-5.16585121504509
2.836,-5.15085626607257
2.842,-5.13590377032368
2.848,-5.12099371413843
2.854,-5.10612609963254
2.86,-5.09130094571405
2.866,-5.07651828915623
2.872,-5.06177818573012
2.878,-5.04708071140083
2.884,-5.03242596359136
2.89,-5.01781406251855
2.896,-5.00324515260558
2.902,-4.98871940397598
2.908,-4.97423701403414
2.914,-4.95979820913812
2.92,-4.94540324637013
2.926,-4.93105241541129
2.932,-4.91674604052679
2.938,-4.9024844826686
2.944,-4.88826814170293
2.95,-4.87409745877028
2.956,-4.85997291878615
2.962,-4.84589505309114
2.968,-4.8318644422596
2.974,-4.81788171907652
2.98,-4.8039475716928
2.986,-4.79006274696976
2.992,-4.77622805402416
2.998,-4.7624443679858
3.004,-4.74871263398013
3.01,-4.73503387134923
3.016,-4.72140917812493
3.022,-4.70783973576856
3.028,-4.6943268141927
3.034,-4.6808717770806
3.04,-4.66747608751987
3.046,-4.65414131396766
3.052,-4.64086913656512
3.058,-4.6276613538195
3.064,-4.61451988967297
3.07,-4.60144680097753
3.076,-4.588444285396
3.082,-4.57551468974917
3.088,-4.56266051882972
3.094,-4.5498844447032
3.1,-4.53718931651657
3.106,-4.5245781708342
3.112,-4.51205424252077
3.118,-4.49962097618967
3.124,-4.48728203823386
3.13,-4.47504132945497
3.136,-4.4629029983038
3.142,-4.45087145474268
3.148,-4.43895138473685
3.154,-4.42714776537758
3.16,-4.41546588063465
3.166,-4.40391133772969
3.172,-4.39249008411448
3.178,-4.38120842502965
3.184,-4.37007304160898
3.19,-4.35909100948268
3.196,-4.34826981781906
3.202,-4.33761738872829
3.208,-4.32714209693323
3.214,-4.31685278959165
3.22,-4.30675880613005
3.226,-4.29686999792217
3.232,-4.28719674761471
3.238,-4.27774998786837
3.244,-4.26854121924397
3.25,-4.25958252692058
3.256,-4.2508176530401
3.262,-4.24231707522491
3.268,-4.23409490222303
3.274,-4.22616532391974
3.28,-4.2185426563734
3.286,-4.2112413802024
3.292,-4.20427617251748
3.298,-4.19766193250432
3.304,-4.1914138006776
3.31,-4.18554717175025
3.316,-4.18007770098975
3.322,-4.17502130386747
3.328,-4.1703941487479
3.334,-4.1662126423122
3.34,-4.16249340736542
3.346,-4.15925325264129
3.352,-4.15650913419137
3.358,-4.15427810793086
3.364,-4.15257727291049
3.37,-4.15142370489608
3.376,-4.15083437986595
3.382,-4.15082608708278
3.388,-4.15141533146403
3.394,-4.15261822506449
3.4,-4.15445036759822
3.406,-4.15692671606702
3.412,-4.16006144372908
3.418,-4.16386778883602
3.424,-4.16835789378875
3.43,-4.17354263561117
3.436,-4.17943144891489
3.442,-4.186032142823
3.448,-4.19335071363328
3.454,-4.20139115532411
3.46,-4.21015527033216
3.466,-4.21964248335039
3.472,-4.22984966119715
3.478,-4.24077094207919
3.484,-4.25239757780095
3.49,-4.2647177926441
3.496,-4.2777166627417
3.502,-4.29137601978582
3.508,-4.30567438282393
3.514,-4.32058692170669
3.52,-4.33608545544032
3.526,-4.35213848826646
3.532,-4.36871128574127
3.538,-4.38576599241939
3.544,-4.40326179197741
3.55,-4.42115510975291
3.556,-4.43939985675005
3.562,-4.45794771319845
3.568,-4.47674844877894
3.574,-4.49575027568212
3.58,-4.5149002297774
3.586,-4.53414457437651
3.592,-4.55342922040906
3.598,-4.57270015631573
3.604,-4.59190388063106
3.61,-4.61098783008793
3.616,-4.62990079613692
3.622,-4.64859332303595
3.628,-4.66701808111875
3.634,-4.68513020947804
3.64,-4.70288762307542
3.646,-4.7202512801857
3.652,-4.73718540706302
3.658,-4.75365767774399
3.664,-4.76963934794198
3.67,-4.78510534300054
3.676,-4.80003430083197
3.682,-4.81440857163922
3.688,-4.82821417698567
3.694,-4.8414407314198
3.7,-4.85408133037085
3.706,-4.86613240840374
3.712,-4.87759357215792
3.718,-4.88846741240202
3.724,-4.89875929962523
3.73,-4.90847716747057
3.736,-4.91763128811035
3.742,-4.92623404338731
3.748,-4.93429969521287
3.754,-4.94184415834348
3.76,-4.94888477826269
3.766,-4.95544011649411
3.772,-4.96152974527088
3.778,-4.96717405310143
3.784,-4.97239406240588
3.79,-4.9772112600603
3.796,-4.98164744137932
3.802,-4.98572456779607
3.808,-4.98946463826118
3.814,-4.99288957418066
3.82,-4.9960211175446
3.826,-4.99888074176255
3.832,-5.00148957461509
3.838,-5.00386833265136
3.844,-5.00603726630677
3.85,-5.00801611497969
3.856,-5.00982407128856
3.862,-5.01147975372824
3.868,-5.01300118695289
3.874,-5.01440578893164
3.88,-5.01571036424776
3.886,-5.01693110284232
3.892,-5.01808358353507
3.898,-5.01918278168935
3.904,-5.02024308041934
3.91,-5.02127828476898
3.916,-5.02230163831788
3.922,-5.02332584169126
3.928,-5.02436307246606
3.934,-5.02542500597267
3.94,-5.02652283649023
3.946,-5.02766729832072
3.952,-5.02886868620213
3.958,-5.0301368744819
3.964,-5.03148133441527
3.97,-5.03291114887874
3.976,-5.03443502369157
3.982,-5.03606129461759
3.988,-5.03779792897121
3.994,-5.03965252057443
4,-5.04163227660374
4.006,-5.04374399462824
4.012,-5.04599402787678
4.018,-5.04838823649067
4.024,-5.05093192223683
4.03,-5.05362974390115
4.036,-5.0564856103988
4.042,-5.05950254859319
4.048,-5.0626825430076
4.054,-5.0660263451794
4.06,-5.06953325153164
4.066,-5.07320085055845
4.072,-5.07702474312741
4.078,-5.08099824411428
4.084,-5.08511207971254
4.09,-5.08935410281421
4.096,-5.09370905881358
4.102,-5.0981584455723
4.108,-5.10268052292488
4.114,-5.10725053683483
4.12,-5.11184122779908
4.126,-5.1164236879186
4.132,-5.12096861128491
4.138,-5.12544794387085
4.144,-5.12983688075791
4.15,-5.13411608444684
4.156,-5.13827391962979
4.162,-5.14230843576749
4.168,-5.14622880145359
4.174,-5.1500559229217
4.18,-5.15382207024774
4.186,-5.15756947745173
4.192,-5.16134804690653
4.198,-5.16521243391536
4.204,-5.16921887713004
4.21,-5.17342215443648
4.216,-5.17787298491557
4.222,-5.18261608833774
4.228,-5.18768898687315
4.234,-5.19312151957098
4.24,-5.19893595838166
4.246,-5.20514757167398
4.252,-5.21176547323942
4.258,-5.21879361163212
4.264,-5.22623178499334
4.27,-5.23407660066828
4.276,-5.24232233046716
4.282,-5.2509616379761
4.288,-5.2599861728977
4.294,-5.26938703949389
4.3,-5.27915515303539
4.306,-5.28928150113487
4.312,-5.29975732723976
4.318,-5.31057425241314
4.324,-5.32172434959171
4.33,-5.33320018228168
4.336,-5.34499481744947
4.342,-5.35710182035564
4.348,-5.36951523734422
4.354,-5.38222957115559
4.36,-5.39523975216426
4.366,-5.4085411080218
4.372,-5.42212933347328
4.378,-5.43600046157517
4.384,-5.4501508371394
4.39,-5.46457709293344
4.396,-5.47927612895377
4.402,-5.49424509494199
4.408,-5.50948137621053
4.414,-5.5249825827781
4.42,-5.54074654177245
4.426,-5.55677129303288
4.432,-5.57305508783041
4.438,-5.58959639061689
4.444,-5.60639388370957
4.45,-5.62344647481457
4.456,-5.64075330728697
4.462,-5.65831377301669
4.468,-5.67612752781521
4.474,-5.69419450915815
4.48,-5.71251495611087
4.486,-5.73108943122879
4.492,-5.74991884417848
4.498,-5.76900447677151
4.504,-5.78834800903824
4.51,-5.80795154589403
4.516,-5.82781764386696
4.522,-5.84794933726354
4.528,-5.86835016304959
4.534,-5.88902418362034
4.54,-5.90997600652864
4.546,-5.93121080013858
4.552,-5.95273430407851
4.558,-5.97455283328871
4.564,-5.99667327440205
4.57,-6.01910307316938
4.576,-6.04185021165345
4.582,-6.06492317397505
4.588,-6.08833089951067
4.594,-6.11208272262054
4.6,-6.13618829823446
4.606,-6.16065751294238
4.612,-6.18550038162824
4.618,-6.21072693014083
4.624,-6.23634706500638
4.63,-6.26237043173583
4.636,-6.28880626384442
4.642,-6.31566322525529
4.648,-6.34294924927079
4.654,-6.37067137773323
4.66,-6.39883560432655
4.666,-6.4274467261625
4.672,-6.45650820782409
4.678,-6.48602206188868
4.684,-6.51598874961647
4.69,-6.54640710497347
4.696,-6.57727428447848
4.702,-6.60858574455206
4.708,-6.64033524714082
4.714,-6.672514893441
4.72,-6.70511518460153
4.726,-6.73812510739992
4.732,-6.77153224210017
4.738,-6.80532288906084
4.744,-6.83948221018946
4.75,-6.87399438105461
4.756,-6.90884274937205
4.762,-6.94400999566647
4.768,-6.97947829215885
4.774,-7.01522945631202
4.78,-7.05124509595274
4.786,-7.08750674344249
4.792,-7.12399597695721
4.798,-7.16069452752654
4.804,-7.19758437104919
4.81,-7.23464780501984
4.816,-7.27186751016107
4.822,-7.30922659753758
4.828,-7.3467086420394
4.834,-7.38429770335141
4.84,-7.4219783356867
4.846,-7.45973558765343
4.852,-7.49755499366086
4.858,-7.53542255825781
4.864,-7.57332473474503
4.87,-7.61124839932343
4.876,-7.64918082193834
4.882,-7.68710963486672
4.888,-7.7250227999729
4.894,-7.76290857543706
4.9,-7.80075548264106
4.906,-7.83855227378333
4.912,-7.87628790068907
4.918,-7.91395148518661
4.924,-7.95153229133464
4.93,-7.98901969971061
4.936,-8.02640318390447
4.942,-8.06367228930735
4.948,-8.10081661423787
4.954,-8.13782579341037
4.96,-8.17468948371857
4.966,-8.21139735228351
4.972,-8.24793906669527
4.978,-8.28430428736414
4.984,-8.32048266188615
4.99,-8.35646382132101
4.996,-8.39223737827631
5.002,-8.42779292668949
5.008,-8.46312004319864
5.014,-8.49820828999409
5.02,-8.53304721904456
5.026,-8.56762637759411
5.032,-8.60193531482902
5.038,-8.63596358961695
5.044,-8.66970077922461
5.05,-8.70313648892259
5.056,-8.73626036239036
5.062,-8.76906209283711
5.068,-8.80153143475729
5.074,-8.83365821624287
5.08,-8.86543235177655
5.086,-8.89684385543321
5.092,-8.92788285441899
5.098,-8.95853960287931
5.104,-8.98880449590986
5.11,-9.01866808370563
5.116,-9.04812108578542
5.122,-9.07715440523078
5.128,-9.10575914288006
5.134,-9.13392661141957
5.14,-9.16164834931601
5.146,-9.18891613453518
5.152,-9.21572199799463
5.158,-9.24205823669845
5.164,-9.26791742650534
5.17,-9.29329243448215
5.176,-9.31817643079729
5.182,-9.34256290011085
5.188,-9.36644565241978
5.194,-9.38981883331948
5.2,-9.41267693364512
5.206,-9.43501479845887
5.212,-9.45682763535174
5.218,-9.47811102203156
5.224,-9.49886091317173
5.23,-9.51907364649806
5.236,-9.53874594809434
5.242,-9.55787493691057
5.248,-9.57645812846058
5.254,-9.59449343769968
5.26,-9.61197918107549
5.266,-9.62891407774945
5.272,-9.64529724998867
5.278,-9.66112822273202
5.284,-9.67640692233711
5.29,-9.69113367451802
5.296,-9.70530920148691
5.302,-9.71893461831547
5.308,-9.7320114285351
5.314,-9.74454151899743
5.32,-9.75652715401935
5.326,-9.76797096883941
5.332,-9.77887596241407
5.338,-9.78924548958517
5.344,-9.79908325265104
5.35,-9.80839329237613
5.356,-9.8171799784747
5.362,-9.82544799960599
5.368,-9.83320235291894
5.374,-9.84044833318558
5.38,-9.84719152156249
5.386,-9.85343777402052
5.392,-9.85919320948272
5.398,-9.86446419771074
5.404,-9.86925734697955
5.41,-9.87357949157988
5.416,-9.87743767918731
5.422,-9.88083915813624
5.428,-9.88379136463577
5.434,-9.88630190996375
5.44,-9.88837856767399
5.446,-9.89002926085022
5.452,-9.89126204943901
5.458,-9.89208511769259
5.464,-9.89250676175039
5.47,-9.89253537738717
5.476,-9.89217944795323
5.482,-9.89144753253094
5.488,-9.89034825432978
5.494,-9.88889028934048
5.5,-9.88708235526687
5.506,-9.88482683572802
5.512,-9.88218746491472
5.518,-9.87917426473095
5.524,-9.8757973354808
5.53,-9.87206683882632
5.536,-9.86799298126183
5.542,-9.86358599813244
5.548,-9.85885613822042
5.554,-9.85381364891988
5.56,-9.84846876201636
5.566,-9.84283168008476
5.572,-9.83691256351577
5.578,-9.83072151817765
5.584,-9.82426858371782
5.59,-9.81756372250516
5.596,-9.8106168092122
5.602,-9.80343762103334
5.608,-9.79603582853329
5.614,-9.78842098711786
5.62,-9.7806025291174
5.626,-9.77258975647134
5.632,-9.76439183400104
5.638,-9.75601778325653
5.644,-9.74747647692191
5.65,-9.73877663376274
5.656,-9.72992681409826
5.662,-9.72093541578045
5.668,-9.7118106706612
5.674,-9.70256064152873
5.68,-9.69319321949374
5.686,-9.68371612180588
5.692,-9.67413689008067
5.698,-9.66446288891747
5.704,-9.65470130488852
5.71,-9.64485914587991
5.716,-9.63494324076521
5.722,-9.62496023939257
5.728,-9.61491661286716
5.734,-9.60481865411037
5.74,-9.59467247867829
5.746,-9.58448402582219
5.752,-9.57425905977424
5.758,-9.56400317124235
5.764,-9.55372177909849
5.77,-9.54342013224552
5.776,-9.53310331164806
5.782,-9.52277623251361
5.788,-9.51244364661069
5.794,-9.50211014471148
5.8,-9.49178015914684
5.806,-9.48145796646243
5.812,-9.47114769016509
5.818,-9.46085330354937
5.824,-9.4505786325944
5.83,-9.44032735892228
5.836,-9.43010302280928
5.842,-9.419909026242
5.848,-9.40974863601098
5.854,-9.39962498683485
5.86,-9.38954108450842
5.866,-9.3794998090689
5.872,-9.36950391797456
5.878,-9.35955604929064
5.884,-9.34965872487796
5.89,-9.33981435357966
5.896,-9.33002523440226
5.902,-9.32029355968736
5.908,-9.31062141827064
5.914,-9.30101079862515
5.92,-9.29146359198631
5.926,-9.28198159545601
5.932,-9.2725665150838
5.938,-9.26321996892305
5.944,-9.25394349006059
5.95,-9.24473852961799
5.956,-9.23560645972355
5.962,-9.22654857645344
5.968,-9.21756610274125
5.974,-9.208660191255
5.98,-9.19983192724085
5.986,-9.19108233133293
5.992,-9.18241236232876
5.998,-9.17382291992985
6.004,-9.16531484744704
6.01,-9.15688893447045
6.016,-9.14854591950369
6.022,-9.14028649256213
6.028,-9.13211129773529
6.034,-9.12402093571293
6.04,-9.11601596627501
6.046,-9.10809691074535
6.052,-9.10026425440879
