"Freq [GHz]","dB(St(7,7)) []"
1,-7.93947706834952
1.006,-8.01151124232382
1.012,-8.08309547347702
1.018,-8.15357495641349
1.024,-8.22253771459009
1.03,-8.2897694931861
1.036,-8.35519775626231
1.042,-8.41884102675268
1.048,-8.48076999366125
1.054,-8.54108078456935
1.06,-8.59987817100634
1.066,-8.65726590257757
1.072,-8.71334172418373
1.078,-8.76819525461512
1.084,-8.82190749178411
1.09,-8.87455116280976
1.096,-8.92619145206346
1.102,-8.97688684480735
1.108,-9.02668995014322
1.114,-9.07564824111793
1.12,-9.12380469120333
1.126,-9.1711983079052
1.132,-9.21786457424014
1.138,-9.26383581236883
1.144,-9.30914148385653
1.15,-9.35380843962179
1.156,-9.39786113062516
1.162,-9.44132178826451
1.168,-9.48421058153511
1.174,-9.52654575638193
1.18,-9.56834376133993
1.186,-9.60961936250355
1.192,-9.65038575005563
1.198,-9.69065463797467
1.204,-9.73043635809305
1.21,-9.76973994936133
1.216,-9.80857324296133
1.222,-9.84694294377925
1.228,-9.88485470867792
1.234,-9.92231322193915
1.24,-9.95932226799252
1.246,-9.99588480027264
1.252,-10.0320029988308
1.258,-10.0676782766474
1.264,-10.1029109860306
1.27,-10.1376976398533
1.276,-10.171981497006
1.282,-10.2005334684502
1.288,-10.2392267042525
1.294,-10.2723309161637
1.3,-10.3049167710125
1.306,-10.3370366536569
1.312,-10.3686968980645
1.318,-10.3998971324405
1.324,-10.4306351106495
1.33,-10.4609078219212
1.336,-10.4907118529856
1.342,-10.5200435415379
1.348,-10.5488990573704
1.354,-10.5772744539973
1.36,-10.6051657064813
1.366,-10.6325687419511
1.372,-10.6594794657639
1.378,-10.6858937847709
1.384,-10.7118076284599
1.39,-10.7372169684158
1.396,-10.762117836368
1.402,-10.7865063409959
1.408,-10.8103786836131
1.414,-10.8337311728155
1.42,-10.8565602381601
1.426,-10.878862442926
1.432,-10.9006344960023
1.438,-10.921873262938
1.444,-10.9425757761881
1.45,-10.9627392445829
1.456,-10.9823610620464
1.462,-11.0014388155882
1.468,-11.0199702925905
1.474,-11.0379534874099
1.48,-11.0553866073142
1.486,-11.0722680777734
1.492,-11.0885965471202
1.498,-11.1043708906011
1.504,-11.1195902138309
1.51,-11.1342538556713
1.516,-11.1483613905464
1.522,-11.1619126302146
1.528,-11.1749076250111
1.534,-11.1873466645784
1.54,-11.1992302781012
1.546,-11.2105592340619
1.552,-11.2213345395339
1.558,-11.2315574390292
1.564,-11.2412294129174
1.57,-11.2503521754333
1.576,-11.2589276722909
1.582,-11.2669580779204
1.588,-11.2744457923463
1.594,-11.2813934377254
1.6,-11.2878038545599
1.606,-11.2936800976071
1.612,-11.2990254315
1.618,-11.3038433261003
1.624,-11.3081374515982
1.63,-11.3119116733806
1.636,-11.3151700466819
1.642,-11.3179168110378
1.648,-11.3201563845584
1.654,-11.3218933580375
1.66,-11.3231324889161
1.666,-11.3238786951161
1.672,-11.3241370487607
1.678,-11.323912769798
1.684,-11.3232112195419
1.69,-11.3220378941485
1.696,-11.3203984180386
1.702,-11.3182985372844
1.708,-11.3157441129714
1.714,-11.3127411145497
1.72,-11.3092956131878
1.726,-11.3054137751392
1.732,-11.3011018551345
1.738,-11.2963661898093
1.744,-11.2912131911778
1.75,-11.285649340161
1.756,-11.2796811801795
1.762,-11.2733153108168
1.768,-11.2665583815621
1.774,-11.2594170856385
1.78,-11.2518981539219
1.786,-11.2440083489565
1.792,-11.2357544590709
1.798,-11.2271432925978
1.804,-11.2181816722015
1.81,-11.2088764293145
1.816,-11.1992343986848
1.822,-11.1892624130357
1.828,-11.1789672978361
1.834,-11.1683558661845
1.84,-11.1574349138014
1.846,-11.1462112141327
1.852,-11.134691513559
1.858,-11.1228825267101
1.864,-11.1107909318812
1.87,-11.0984233665481
1.876,-11.0857864229782
1.882,-11.0728866439331
1.888,-11.0597305184616
1.894,-11.046324477778
1.9,-11.0326748912253
1.906,-11.0187880623204
1.912,-11.0046702248801
1.918,-10.9903275392305
1.924,-10.9757660884993
1.93,-10.9609918749966
1.936,-10.9460108166896
1.942,-10.9308287437808
1.948,-10.9154513954009
1.954,-10.8998844164324
1.96,-10.8841333544845
1.966,-10.8682036570411
1.972,-10.8521006688136
1.978,-10.8358296293302
1.984,-10.8193956708026
1.99,-10.8028038163139
1.996,-10.7860589783795
2.002,-10.7691659579324
2.008,-10.7521294437966
2.014,-10.7349540127065
2.02,-10.7176441299385
2.026,-10.7002041506174
2.032,-10.6826383217584
2.038,-10.6649507850991
2.044,-10.6471455807687
2.05,-10.6292266518258
2.056,-10.6111978496825
2.062,-10.5930629404092
2.068,-10.5748256118909
2.074,-10.5564894817752
2.08,-10.5380581061232
2.086,-10.5195349886376
2.092,-10.5009235903112
2.098,-10.4822273393024
2.104,-10.4634496408187
2.11,-10.4445938867599
2.116,-10.4256634648581
2.122,-10.4066617670444
2.128,-10.3875921967712
2.134,-10.3684581750396
2.14,-10.3492631449048
2.146,-10.3300105742741
2.152,-10.3107039568638
2.158,-10.2913468112384
2.164,-10.2719426779236
2.17,-10.2524951146515
2.176,-10.2330076898625
2.182,-10.2134839746512
2.188,-10.1939275333962
2.194,-10.1743419133566
2.2,-10.1547306335447
2.206,-10.1350971731998
2.212,-10.1154449601875
2.218,-10.0957773596324
2.224,-10.0760976630686
2.23,-10.0564090783512
2.236,-10.0367147205345
2.242,-10.0170176038674
2.248,-9.99732063501514
2.254,-9.97762660756049
2.26,-9.95793819779991
2.266,-9.93825796180501
2.272,-9.91858833368947
2.278,-9.89893162499326
2.284,-9.87929002507667
2.29,-9.85966560240343
2.296,-9.84006030658503
2.302,-9.82047597105711
2.308,-9.80091431626095
2.314,-9.78137695321018
2.32,-9.76186538733127
2.326,-9.74238102247745
2.332,-9.7229251650275
2.338,-9.703499027993
2.344,-9.68410373506971
2.35,-9.6647403245806
2.356,-9.64540975326849
2.362,-9.62611289990638
2.368,-9.60685056870209
2.374,-9.58762349248152
2.38,-9.56843233564118
2.386,-9.54927769686632
2.392,-9.53016011161484
2.398,-9.51108005437127
2.404,-9.49203794067745
2.41,-9.47303412894845
2.416,-9.45406892208399
2.422,-9.43514256888618
2.428,-9.41625526529503
2.434,-9.39740715545336
2.44,-9.37859833261249
2.446,-9.35982883988985
2.452,-9.3410986708891
2.458,-9.32240777019288
2.464,-9.30375603373748
2.47,-9.28514330907819
2.476,-9.26656939555321
2.482,-9.24803404435337
2.488,-9.22953695850422
2.494,-9.2110777927662
2.5,-9.19265615345816
2.506,-9.1742715982087
2.512,-9.15592363563929
2.518,-9.1376117249826
2.524,-9.11933527563882
2.53,-9.10109364667258
2.536,-9.08288614625227
2.542,-9.06471203103346
2.548,-9.04657050548769
2.554,-9.02846072117737
2.56,-9.01038177597765
2.566,-8.99233271324536
2.572,-8.97431252093526
2.578,-8.95632013066346
2.584,-8.93835441671759
2.59,-8.92041419501331
2.596,-8.9024982219964
2.602,-8.88460519348962
2.608,-8.86673374348343
2.614,-8.84888244286933
2.62,-8.83104979811474
2.626,-8.81323424987802
2.632,-8.79543417156227
2.638,-8.77764786780632
2.644,-8.7598735729114
2.65,-8.74210944920178
2.656,-8.72435358531768
2.662,-8.7066039944386
2.668,-8.6888586124352
2.674,-8.67111529594797
2.68,-8.65337182039049
2.686,-8.63562587787547
2.692,-8.61787507506141
2.698,-8.60011693091786
2.704,-8.58234887440713
2.71,-8.56456824208036
2.716,-8.54677227558577
2.722,-8.52895811908693
2.728,-8.51112281658888
2.734,-8.49326330916993
2.74,-8.47537643211707
2.746,-8.45745891196269
2.752,-8.4395073634207
2.758,-8.42151828621979
2.764,-8.40348806183205
2.77,-8.38541295009477
2.776,-8.36728908572375
2.782,-8.34911247471621
2.788,-8.33087899064175
2.794,-8.31258437081984
2.8,-8.2942242123823
2.806,-8.27579396821991
2.812,-8.25728894281181
2.818,-8.2387042879372
2.824,-8.22003499826874
2.83,-8.20127590684739
2.836,-8.18242168043899
2.842,-8.16346681477288
2.848,-8.14440562966364
2.854,-8.12523226401721
2.86,-8.10594067072331
2.866,-8.08652461143659
2.872,-8.06697765124955
2.878,-8.04729315326107
2.884,-8.02746427304481
2.89,-8.00748395302316
2.896,-7.98734491675266
2.902,-7.96703966312821
2.908,-7.94656046051454
2.914,-7.92589934081418
2.92,-7.90504809348291
2.926,-7.88399825950483
2.932,-7.86274112534075
2.938,-7.84126771686531
2.944,-7.81956879330997
2.95,-7.79763484123111
2.956,-7.77545606852424
2.962,-7.75302239850806
2.968,-7.73032346410408
2.974,-7.70734860214051
2.98,-7.68408684781168
2.986,-7.66052692932749
2.992,-7.63665726279046
2.998,-7.61246594734148
3.004,-7.5879407606192
3.01,-7.56306915458158
3.016,-7.53783825174283
3.022,-7.51223484188287
3.028,-7.48624537929168
3.034,-7.45985598061544
3.04,-7.43305242337711
3.046,-7.40582014524908
3.052,-7.37814424416195
3.058,-7.35000947933918
3.064,-7.32140027335386
3.07,-7.29230071531061
3.076,-7.26269456526227
3.082,-7.23256525997846
3.088,-7.20189592019024
3.094,-7.17066935944266
3.1,-7.13886809469491
3.106,-7.10647435881512
3.112,-7.07347011512537
3.118,-7.03983707415988
3.124,-7.00555671280732
3.13,-6.97061029601618
3.136,-6.93497890124925
3.142,-6.89864344588071
3.148,-6.86158471773621
3.154,-6.82378340898232
3.16,-6.7852201535775
3.166,-6.74587556850136
3.172,-6.70573029898283
3.178,-6.66476506795035
3.184,-6.6229607299281
3.19,-6.58029832960232
3.196,-6.53675916527867
3.202,-6.49232485744784
3.208,-6.44697742266908
3.214,-6.40069935297188
3.22,-6.35347370096354
3.226,-6.30528417081385
3.232,-6.25611521526856
3.238,-6.2059521388193
3.244,-6.154781207129
3.25,-6.10258976277866
3.256,-6.04966115194063
3.262,-5.99572331566775
3.268,-5.94079098911257
3.274,-5.8848767806662
3.28,-5.8279919323518
3.286,-5.77014701453688
3.292,-5.71135255950495
3.298,-5.65161963895146
3.304,-5.5909603904971
3.31,-5.52938849801085
3.316,-5.46691963002997
3.322,-5.40357183994238
3.328,-5.33936593092036
3.334,-5.27432578790672
3.34,-5.20847867828341
3.346,-5.14185552221831
3.352,-5.07449113310012
3.358,-5.00642442794264
3.364,-4.93769860717405
3.37,-4.86836130282692
3.376,-4.79846469381503
3.382,-4.72806558672507
3.388,-4.65722546036834
3.394,-4.58601047223204
3.4,-4.51449142494366
3.406,-4.4427436909185
3.412,-4.37084709350078
3.418,-4.29888574313465
3.424,-4.22694782741303
3.43,-4.15512535424892
3.436,-4.08351384789249
3.442,-4.01221199807424
3.448,-3.94132126318219
3.454,-3.87094542907121
3.46,-3.80119012584221
3.466,-3.7321623057047
3.472,-3.66396968582951
3.478,-3.59672016089074
3.484,-3.53052119076459
3.49,-3.46547916957442
3.496,-3.401698782922
3.502,-3.33928236069961
3.508,-3.27832923331396
3.514,-3.21893509944771
3.52,-3.16119141362148
3.526,-3.10518480178228
3.532,-3.05099651292601
3.538,-2.99870191435746
3.544,-2.94837003760486
3.55,-2.90006318124789
3.556,-2.85383657600319
3.562,-2.80973811636386
3.568,-2.76780816193634
3.574,-2.72807941039192
3.58,-2.69057684268599
3.586,-2.65531773993283
3.592,-2.62231177009338
3.598,-2.59156114147286
3.604,-2.56306081896569
3.61,-2.53679879805359
3.616,-2.51275643078053
3.622,-2.49090879731073
3.628,-2.47122511623121
3.634,-2.45366918649114
3.64,-2.43819985377265
3.646,-2.4247714941512
3.652,-2.41333450811575
3.658,-2.40383581835985
3.664,-2.39621936520553
3.67,-2.39042659405989
3.676,-2.38639692990678
3.682,-2.38406823448118
3.688,-2.38337724244108
3.694,-2.38425997352131
3.7,-2.38665211830936
3.706,-2.39048939591089
3.712,-2.39570788236024
3.718,-2.40224430917121
3.724,-2.41003633190788
3.73,-2.41902276908315
3.736,-2.42914381205948
3.742,-2.44034120693522
3.748,-2.45255840965054
3.754,-2.46574071574395
3.76,-2.47983536633639
3.766,-2.49479163202113
3.772,-2.51056087639669
3.778,-2.52709660100509
3.784,-2.54435447343007
3.79,-2.56229234027859
3.796,-2.58087022671457
3.802,-2.60005032414351
3.808,-2.61979696756301
3.814,-2.64007660400022
3.82,-2.66085775335697
3.826,-2.68211096287804
3.832,-2.70380875635031
3.838,-2.72592557903177
3.844,-2.74843773920071
3.85,-2.77132334710713
3.856,-2.79456225200188
3.862,-2.81813597781258
3.868,-2.8420276579304
3.874,-2.86622196946579
3.88,-2.89070506722452
3.886,-2.91546451754484
3.892,-2.94048923202229
3.898,-2.9657694010253
3.904,-2.9912964267724
3.91,-3.01706285559419
3.916,-3.04306230883749
3.922,-3.06928941167995
3.928,-3.09573971890349
3.934,-3.12240963641925
3.94,-3.14929633703463
3.946,-3.17639766859732
3.952,-3.20371205222893
3.958,-3.23123836786272
3.964,-3.25897582371119
3.97,-3.28692380559963
3.976,-3.31508170129839
3.982,-3.34344869406289
3.988,-3.37202351854436
3.994,-3.40080417107576
4,-3.42978756509559
4.006,-3.4589691212041
4.012,-3.48834228015434
4.018,-3.51789792612945
4.024,-3.54762370720593
4.03,-3.57750324033211
4.036,-3.60751519001233
4.042,-3.6376322139413
4.048,-3.66781977609387
4.054,-3.69803483952925
4.06,-3.7282244689476
4.066,-3.75832439849662
4.072,-3.78825765496571
4.078,-3.81793337114649
4.084,-3.84724597806927
4.09,-3.87607502457139
4.096,-3.90428593043537
4.102,-3.93173202151676
4.108,-3.95825820150563
4.114,-3.98370655911979
4.12,-4.0079240640697
4.126,-4.03077225003312
4.132,-4.05213841910699
4.138,-4.07194746675044
4.144,-4.09017300169357
4.15,-4.10684614430635
4.156,-4.12206036364759
4.162,-4.13597105350119
4.168,-4.14878925347997
4.174,-4.16076987080771
4.18,-4.17219572454014
4.186,-4.1833594569241
4.192,-4.19454564124582
4.198,-4.20601520612911
4.204,-4.21799369027156
4.21,-4.23066403935675
4.216,-4.2441638777821
4.222,-4.25858659629412
4.228,-4.27398526623632
4.234,-4.29037831056315
4.24,-4.30775596626135
4.246,-4.32608678040168
4.252,-4.34532362051299
4.258,-4.36540889970489
4.264,-4.38627889220373
4.27,-4.40786713860646
4.276,-4.430107016666
4.282,-4.45293359263011
4.288,-4.47628488099289
4.294,-4.50010263666122
4.3,-4.52433279048201
4.306,-4.54892562205945
4.312,-4.57383574614334
4.318,-4.59902197247981
4.324,-4.62444708478663
4.33,-4.65007757272436
4.336,-4.67588334130079
4.342,-4.7018374148082
4.348,-4.72791564682134
4.354,-4.75409644364585
4.36,-4.78036050559953
4.366,-4.8066905883713
4.372,-4.83307128522443
4.378,-4.8594888298192
4.384,-4.88593091879585
4.39,-4.91238655287893
4.396,-4.93884589506411
4.402,-4.96530014437171
4.408,-4.99174142365667
4.414,-5.01816268002215
4.42,-5.0445575964743
4.426,-5.07092051356125
4.432,-5.0972463598536
4.438,-5.12353059023653
4.444,-5.14976913109363
4.45,-5.175958331565
4.456,-5.20209492015701
4.462,-5.22817596606723
4.468,-5.25419884466493
4.474,-5.28016120663666
4.48,-5.30606095036682
4.486,-5.33189619717637
4.492,-5.35766526908931
4.498,-5.38336666883682
4.504,-5.40899906184334
4.51,-5.434561259969
4.516,-5.46005220680792
4.522,-5.48547096436343
4.528,-5.51081670093934
4.534,-5.53608868010159
4.54,-5.56128625057698
4.546,-5.58640883696611
4.552,-5.61145593115615
4.558,-5.63642708432577
4.564,-5.66132189944046
4.57,-5.68614002414119
4.576,-5.71088114393346
4.582,-5.73554497558793
4.588,-5.76013126066784
4.594,-5.78463975910313
4.6,-5.80907024273653
4.606,-5.8334224887739
4.612,-5.8576962730795
4.618,-5.88189136326764
4.624,-5.9060075115553
4.63,-5.93004444735618
4.636,-5.95400186961576
4.642,-5.97787943890876
4.648,-6.00167676934549
4.654,-6.02539342036102
4.66,-6.04902888849027
4.666,-6.0725825992629
4.672,-6.09605389938109
4.678,-6.11944204937194
4.684,-6.14274621692941
4.69,-6.16596547117906
4.696,-6.18909877810814
4.702,-6.21214499740272
4.708,-6.23510288092058
4.714,-6.25797107300194
4.72,-6.28074811277965
4.726,-6.30343243859623
4.732,-6.32602239456898
4.738,-6.34851623926862
4.744,-6.37091215639549
4.75,-6.39320826725447
4.756,-6.41540264475078
4.762,-6.43749332855908
4.768,-6.4594783410619
4.774,-6.48135570361576
4.78,-6.50312345268597
4.786,-6.52477965539644
4.792,-6.54632242406798
4.798,-6.56774992936593
4.804,-6.589060411742
4.81,-6.61025219093164
4.816,-6.63132367335188
4.822,-6.65227335733
4.828,-6.67309983617546
4.834,-6.69380179918272
4.84,-6.71437803071563
4.846,-6.73482740757531
4.852,-6.75514889488866
4.858,-6.77534154077711
4.864,-6.79540447007247
4.87,-6.81533687734331
4.876,-6.83513801948103
4.882,-6.85480720807351
4.888,-6.87434380176699
4.894,-6.89374719878709
4.9,-6.91301682975866
4.906,-6.9321521509331
4.912,-6.95115263790321
4.918,-6.97001777985851
4.924,-6.98874707441133
4.93,-7.00734002300353
4.936,-7.02579612688785
4.942,-7.04411488366447
4.948,-7.06229578434418
4.954,-7.08033831090188
4.96,-7.09824193428033
4.966,-7.11600611280105
4.972,-7.13363029093869
4.978,-7.15111389841593
4.984,-7.16845634957714
4.99,-7.18565704300153
4.996,-7.20271536131937
5.002,-7.21963067119771
5.008,-7.23640232346529
5.014,-7.25302965334984
5.02,-7.26951198080359
5.026,-7.28584861089638
5.032,-7.30203883425811
5.038,-7.31808192755526
5.044,-7.33397715398835
5.05,-7.34972376379934
5.056,-7.36532099478019
5.062,-7.38076807277494
5.068,-7.3960642121698
5.074,-7.41120861636647
5.08,-7.42620047823542
5.086,-7.44103898054642
5.092,-7.45572329637495
5.098,-7.47025258948322
5.104,-7.48462601467545
5.11,-7.49884271812757
5.116,-7.51290183769153
5.122,-7.52680250317519
5.128,-7.5405438365986
5.134,-7.55412495242794
5.14,-7.56754495778844
5.146,-7.58080295265774
5.152,-7.59389803004119
5.158,-7.60682927613072
5.164,-7.61959577044892
5.17,-7.63219658597993
5.176,-7.64463078928886
5.182,-7.65689744063145
5.188,-7.66899559405541
5.194,-7.68092429749538
5.2,-7.69268259286289
5.206,-7.70426951613298
5.212,-7.71568409742914
5.218,-7.72692536110799
5.224,-7.73799232584534
5.23,-7.74888400472495
5.236,-7.75959940533179
5.242,-7.77013752985085
5.248,-7.78049737517332
5.254,-7.79067793301133
5.26,-7.80067819002273
5.266,-7.81049712794732
5.272,-7.82013372375601
5.278,-7.82958694981405
5.284,-7.83885577406006
5.29,-7.8479391602019
5.296,-7.85683606793111
5.302,-7.86554545315698
5.308,-7.87406626826187
5.314,-7.88239746237918
5.32,-7.89053798169523
5.326,-7.89848676977663
5.332,-7.90624276792458
5.338,-7.91380491555742
5.344,-7.9211721506231
5.35,-7.9283434100429
5.356,-7.93531763018805
5.362,-7.9420937473907
5.368,-7.94867069849078
5.374,-7.95504742142051
5.38,-7.96122285582784
5.386,-7.96719594374086
5.392,-7.97296563027445
5.398,-7.97853086438107
5.404,-7.98389059964738
5.41,-7.98904379513827
5.416,-7.99398941629018
5.422,-7.99872643585549
5.428,-8.00325383489959
5.434,-8.00757060385266
5.44,-8.01167574361781
5.446,-8.01556826673746
5.452,-8.0192471986199
5.458,-8.0227115788277
5.464,-8.02596046243002
5.47,-8.02899292142058
5.476,-8.03180804620313
5.482,-8.03440494714635
5.488,-8.03678275621003
5.494,-8.03894062864429
5.5,-8.04087774476364
5.506,-8.04228919233645
5.512,-8.04348168947926
5.518,-8.04445424890103
5.524,-8.04520594181298
5.53,-8.04573590044125
5.536,-8.04604332057779
5.542,-8.0461274641663
5.548,-8.04598766191972
5.554,-8.04562331596571
5.56,-8.04503390251593
5.566,-8.04421897455512
5.572,-8.04317816454522
5.578,-8.04191118713981
5.584,-8.04041784190391
5.59,-8.03869801603342
5.596,-8.03675168706905
5.602,-8.03457892559829
5.608,-8.03217989793971
5.614,-8.02955486880282
5.62,-8.02670420391695
5.626,-8.0236283726221
5.632,-8.02032795041471
5.638,-8.01680362144087
5.644,-8.01305618092932
5.65,-8.00908653755654
5.656,-8.00489571573593
5.662,-8.00048485782289
5.668,-7.99585522622765
5.674,-7.99100820542739
5.68,-7.98594530386923
5.686,-7.98066815575564
5.692,-7.97517852270364
5.698,-7.9694782952693
5.704,-7.96356949432901
5.71,-7.95745427230918
5.716,-7.95113491425582
5.722,-7.94461383873601
5.728,-7.9378935985631
5.734,-7.93097688133785
5.74,-7.92386650979791
5.746,-7.91656544196842
5.752,-7.90907677110662
5.758,-7.90140372543406
5.764,-7.89354966765003
5.77,-7.88551809422062
5.776,-7.87731263443806
5.782,-7.86893704924562
5.788,-7.86039522982394
5.794,-7.8516911959351
5.8,-7.84282909402168
5.806,-7.83381319505837
5.812,-7.82464789215458
5.818,-7.8153376979073
5.824,-7.80588724150402
5.83,-7.7963012655764
5.836,-7.78658462280631
5.842,-7.77674227228627
5.848,-7.76677927563773
5.854,-7.75670079289092
5.86,-7.74651207813128
5.866,-7.73621847491792
5.872,-7.7258254114809
5.878,-7.71533839570442
5.884,-7.70476300990428
5.89,-7.69410490540859
5.896,-7.68336979695148
5.902,-7.67256345689042
5.908,-7.66169170925848
5.914,-7.65076042366357
5.92,-7.63977550904727
5.926,-7.62874290731679
5.932,-7.61766858686375
5.938,-7.60655853598443
5.944,-7.59541875621633
5.95,-7.58425525560654
5.956,-7.57307404192754
5.962,-7.56188111585657
5.968,-7.55068246413487
5.974,-7.53948405272333
5.98,-7.52829181997106
5.986,-7.51711166981355
5.992,-7.50594946501715
5.998,-7.49481102048622
6.004,-7.48370209664951
6.01,-7.4726283929417
6.016,-7.4615955413961
6.022,-7.45060910036389
6.028,-7.43967454837489
6.034,-7.42879727815451
6.04,-7.41798259081074
6.046,-7.40723569020462
6.052,-7.39656167751684
